RED			INFRARED
0.400000000000000	0.700000000000000
0.400892362200888	0.701388827034071
0.401125787205555	0.701619840757145
0.400477894917487	0.700302715739080
0.399310349887721	0.698073901835465
0.398329618340274	0.696176017678666
0.398119408903857	0.695635851402024
0.398754391870887	0.696585253717158
0.399750972951541	0.698174591895505
0.400387715561683	0.699136066835180
0.400183241491699	0.698623886193096
0.399215164943229	0.696774965498443
0.398068875410472	0.694618883015008
0.397450082063798	0.693396708729919
0.397717674079124	0.693739744609938
0.398646214590542	0.695251973992661
0.399575333236838	0.696772700776548
0.399847095936057	0.697145469099236
0.399241745369474	0.695984118979771
0.398123284628125	0.693928730290005
0.397198505124584	0.692221980375849
0.397049019439434	0.691886431942911
0.397746165596475	0.693047513900980
0.398803775734654	0.694850487117280
0.399500083993136	0.696026377947506
0.399355621523091	0.695732146184642
0.398450659142764	0.694108769016918
0.397372002426481	0.692187705986018
0.396824369888252	0.691207682401152
0.397163682657527	0.691794188960723
0.398161300736442	0.693544998600739
0.399155318779894	0.695296155861146
0.399488741367768	0.695892316618163
0.398944399366180	0.694951358540303
0.397888626902992	0.693116976384906
0.397028563831074	0.691632009207593
0.396943787996700	0.691515026671926
0.397702410051926	0.692885405206522
0.398815836317809	0.694883801542433
0.399562154762360	0.696240686288748
0.399464013837743	0.696116484502863
0.398604565803593	0.694657024376341
0.397572272358800	0.692896504834535
0.397071120656214	0.692072235599013
0.397454347565023	0.692804900241374
0.398490419288770	0.694687136974638
0.399516224543849	0.696552862400161
0.399876044396392	0.697249006429781
0.399355633598901	0.696398652700624
0.398323985114994	0.694650269361877
0.397488908181206	0.693248002114334
0.397428265083103	0.693207562419481
0.398207260216412	0.694643400218281
0.399335195046479	0.696692676536345
0.400090323780301	0.698086377598830
0.399997705112933	0.697989404431055
0.399143638365383	0.696553368447311
0.398118478562650	0.694816056165935
0.397625695317003	0.694014131629868
0.398016038332268	0.694764171925345
0.399055263247041	0.696654314784310
0.400079218573186	0.698516908662774
0.400433601742467	0.699201627036151
0.399907197452343	0.698337124167190
0.398871727207344	0.696576896854680
0.398035707523521	0.695166551731895
0.397975299983022	0.695119011735927
0.398752802080053	0.696543800059354
0.399875396113934	0.698574516931374
0.400621470173659	0.699942528872119
0.400518435949698	0.699816997985048
0.399655653913377	0.698355020859800
0.398625260769938	0.696597598904417
0.398130080149921	0.695780322455738
0.398518239733002	0.696515200837414
0.399552649687620	0.698385391968680
0.400567983004422	0.700221182239736
0.400911212424454	0.700874474981336
0.400374000585441	0.699978956605852
0.399330634497853	0.698192593308328
0.398490170533754	0.696761888341926
0.398426908235876	0.696696429064941
0.399200091777899	0.698100301360377
0.400314655513872	0.700103078861090
0.401049006388816	0.701436083721184
0.400932801093249	0.701272346684670
0.400058356261967	0.699774084795661
0.399019490602954	0.697985183590964
0.398518295319863	0.697139878638942
0.398900211832202	0.697845397322216
0.399925267424627	0.699679779548797
0.400926946541160	0.701471183706063
0.401253500937654	0.702073735977646
0.400699483872123	0.701126192934519
0.399641766692191	0.699291067525496
0.398789974330112	0.697815881775340
0.398716590262750	0.697707065936704
0.399477874212383	0.699063511438104
0.400576603803395	0.701011069430661
0.401291311236662	0.702281368033694
0.401154009842572	0.702051682987341
0.400260082149751	0.700489738671333
0.399205135979203	0.698642697800236
0.398690639639778	0.697743846010701
0.399059466493059	0.698396053018655
0.400068889887991	0.700172684701036
0.401051340685496	0.701900223430949
0.401356480971742	0.702435457916965
0.400781872852092	0.701422622400901
0.399707072974134	0.699529141482405
0.398842361222508	0.698003880034666
0.398758483513563	0.697850403483002
0.399508790968040	0.699162675996924
0.400593977065229	0.701063065084633
0.401292761713275	0.702283701344770
0.401139557916292	0.702006241818604
0.400232831577433	0.700403982320494
0.399169972182798	0.698527354890464
0.398651799426372	0.697608626666101
0.399018582726221	0.698246194582264
0.400024799601669	0.700008596430839
0.401001776994277	0.701720441974671
0.401300521380082	0.702240931763395
0.400721515408706	0.701219462455099
0.399646889002907	0.699327989819505
0.398787446839110	0.697816287736947
0.398712058570656	0.697684588799771
0.399471027589325	0.699021444601228
0.400562825904353	0.700945243095135
0.401266221515206	0.702188106640512
0.401117878600347	0.701935539588986
0.400219185492823	0.700365848891561
0.399169142983222	0.698532157919114
0.398667751212440	0.697665138457260
0.399052514163667	0.698358159843753
0.400074967273804	0.700174412388291
0.401065201466821	0.701936150445602
0.401375443572742	0.702504532428772
0.400808974837510	0.701533684489456
0.399750377718367	0.699699682659636
0.398910867880597	0.698252833253661
0.398857341232878	0.698189712241403
0.399636979827874	0.699593202540803
0.400745985791794	0.701577527765139
0.401463146703879	0.702874680183381
0.401327361243495	0.702673938928274
0.400442930055156	0.701158589772817
0.399410462733037	0.699384456984862
0.398929151610452	0.698580679515870
0.399333768815859	0.699335726959035
0.400372966284273	0.701207639574509
0.401375678657726	0.703016574895047
0.401695445079559	0.703625951243424
0.401138440729067	0.702694951928479
0.400091795555668	0.700904117359353
0.399267233657082	0.699504649089922
0.399229783674409	0.699489856476629
0.400023626609214	0.700937376214329
0.401142827470369	0.702957716848571
0.401866330877840	0.704283199615073
0.401735401840150	0.704107325725438
0.400857372213059	0.702618779115286
0.399834565677493	0.700876471811247
0.399365463567853	0.700108370146766
0.399782200865833	0.700898385688553
0.400830640858922	0.702799732951484
0.401838652474118	0.704630769107613
0.402161164288973	0.705257422542073
0.401607300393263	0.704344120213913
0.400566767819062	0.702575982317221
0.399751807019605	0.701205155144744
0.399725573338110	0.701221677615227
0.400529232981177	0.702697893448815
0.401654692806220	0.704740507030682
0.402381020420447	0.706082027323427
0.402251792103220	0.705919970883574
0.401377290165555	0.704448140446266
0.400361448047727	0.702728189072847
0.399901916297662	0.701986512584991
0.400328066951145	0.702802034384085
0.401382848232578	0.704722693012605
0.402392935090367	0.706564575802695
0.402714509503749	0.707195625358861
0.402159495213812	0.706284984045485
0.401120013797391	0.704521794878063
0.400308653044115	0.703158579104946
0.400286530119003	0.703181545350225
0.401091644623641	0.704657214283698
0.402213609402569	0.706687995076169
0.402931491616032	0.708006130349011
0.402791061767263	0.707812728380941
0.401905438924030	0.706306316136204
0.400880059382411	0.704550932021072
0.400411651849176	0.703771103993300
0.400826760192922	0.704540549090419
0.401865383705366	0.706401803479776
0.402852999330472	0.708168649972840
0.403147061689279	0.708711093046424
0.402562330195950	0.707703110797875
0.401493392323343	0.705838060790334
0.400653254891437	0.704369111955063
0.400601097372052	0.704279011485118
0.401371888427188	0.705628932996144
0.402453117740081	0.707517572820470
0.403124051389402	0.708677582973346
0.402932872561665	0.708314414177094
0.401995768022389	0.706632129384242
0.400919920045995	0.704698021798000
0.400401395955413	0.703735684428169
0.400764195204751	0.704314631076459
0.401745676623553	0.705973067236353
0.402670446730824	0.707523597103408
0.402897568862713	0.707839443637834
0.402244972270416	0.706600584584615
0.401110037360502	0.704505748760815
0.400206511319757	0.702809899271021
0.400091956622582	0.702493461420323
0.400798634286087	0.703613394376469
0.401812233872888	0.705265796605822
0.402412533985600	0.706184805098101
0.402150423133883	0.705581223444238
0.401145419156865	0.703665575957571
0.400006682863560	0.701509243158373
0.399429826253793	0.700335625612214
0.399736489492022	0.700710691732929
0.400661556599438	0.702168888096781
0.401528904754957	0.703522113424203
0.401699312910494	0.703647163707978
0.400993943958439	0.702230234085569
0.399812988689531	0.699975497856254
0.398870909568563	0.698139646313962
0.398723592283184	0.697700590662376
0.399400502092509	0.698710768207918
0.400385412629019	0.700263258482770
0.400958466144079	0.701093140354670
0.400673067120525	0.700415893816001
0.399651830735674	0.698447690115199
0.398505621247762	0.696263052913899
0.397929287946839	0.695084135746627
0.398241782375831	0.695472218806033
0.399175168759777	0.696956774176043
0.400052234017987	0.698347711194995
0.400235091042018	0.698524043461377
0.399547729736342	0.697176754823042
0.398392721017354	0.695013969385500
0.397484796929184	0.693292568527101
0.397377717175618	0.692986394150569
0.398097708722956	0.694141813719128
0.399126197467356	0.695847360709521
0.399743265942182	0.696837552056371
0.399504414971025	0.696331061770297
0.398534939558151	0.694548250484957
0.397446996904793	0.692565366904123
0.396934280495290	0.691601962937074
0.397312688759609	0.692213364580645
0.398311136845724	0.693922908739483
0.399251026879608	0.695537463781019
0.399495540412485	0.695937312912139
0.398871253003962	0.694817378551255
0.397782897987170	0.692888985934561
0.396945289046056	0.691408570590179
0.396909911138270	0.691345401383044
0.397699650537061	0.692739418329959
0.398793530059078	0.694674399286978
0.399471558236589	0.695884227243509
0.399291350317486	0.695590819923794
0.398380925742065	0.694018887309088
0.397353806232669	0.692246672390431
0.396902633792346	0.691491511803546
0.397340397224360	0.692303289213653
0.398393046981312	0.694199843392465
0.399380820315455	0.695985750702741
0.399668212558695	0.696543402409288
0.399084645183915	0.695572565103770
0.398037284475867	0.693788724407556
0.397241308279375	0.692448880688744
0.397246226508825	0.692518795606169
0.398071904841190	0.694033102774074
0.399195300520876	0.696071989775008
0.399896693675279	0.697369893225226
0.399736156045892	0.697153158281141
0.398844761716484	0.695652003919280
0.397837713659199	0.693947794738950
0.397406909791718	0.693256749178556
0.397862732568267	0.694124379622563
0.398928467883061	0.696064068814015
0.399923479466563	0.697879100058951
0.400213848863289	0.698454906761559
0.399632087597757	0.697496948960055
0.398588007047146	0.695725627612639
0.397797332652046	0.694399171828462
0.397807761175031	0.694480419492191
0.398636283578912	0.695999209015595
0.399757921087018	0.698032575144646
0.400453332311332	0.699315860227832
0.400285121397325	0.699080089089233
0.399387457232750	0.697561134275082
0.398377230602253	0.695843523781486
0.397945576355335	0.695142312574081
0.398400235269114	0.695998527603990
0.399461782008951	0.697920923778209
0.400448647165151	0.699711261867024
0.400728419821262	0.700257722670236
0.400136598429483	0.699271093617753
0.399085512054916	0.697476257623913
0.398291289044561	0.696132188017218
0.398299661672459	0.696198285981405
0.399124596942788	0.697699072890357
0.400239035500982	0.699707908648828
0.400923870864833	0.700960516811448
0.400744090980300	0.700692068380397
0.399836803123897	0.699143546121878
0.398820425434139	0.697402098690841
0.398385174455064	0.696681095387620
0.398836009258781	0.697516597044368
0.399890673831824	0.699412304111081
0.400866565112416	0.701168082185172
0.401132691634433	0.701674531809773
0.400527456954509	0.700647476394086
0.399465631323503	0.698816025662129
0.398663680340085	0.697439689272896
0.398665325799277	0.697474287433858
0.399481491011903	0.698938955837261
0.400583042731749	0.700903386829405
0.401251136124117	0.702103756774369
0.401053180899860	0.701779502424210
0.400129266156157	0.700176872971143
0.399099386967571	0.698385830181715
0.398652903384799	0.697618295144468
0.399092073549468	0.698405654611755
0.400131912597034	0.700246902342404
0.401088901816765	0.701940400896289
0.401333593720092	0.702379587108060
0.400707418873046	0.701285742092697
0.399627704235660	0.699392619402747
0.398811364697241	0.697960679078125
0.398800226514648	0.697942579273747
0.399602291534045	0.699352498135912
0.400686480359556	0.701256891367275
0.401334335065158	0.702392804570928
0.401115799790598	0.702004321343079
0.400174038838644	0.700343288434365
0.399130698429791	0.698502759420118
0.398674342987411	0.697693441292071
0.399104584048091	0.698442246106196
0.400133758165091	0.700243628154928
0.401077473042188	0.701894573277212
0.401307850449012	0.702291423829486
0.400669348722694	0.701160916447726
0.399581825731023	0.699241370970538
0.398762598160313	0.697794053516017
0.398751536116329	0.697768264611001
0.399553653001164	0.699172990670712
0.400635850679141	0.701071180443734
0.401279974620465	0.702200434502632
0.401058401657347	0.701809114054677
0.400117247563121	0.700154234712204
0.399079667017982	0.698331461467336
0.398633275930095	0.697549773163722
0.399074885788176	0.698331079271368
0.400114005787768	0.700164765100761
0.401065224408066	0.701845909098089
0.401302084081549	0.702273219851267
0.400671913955070	0.701178335391991
0.399596937559274	0.699303576325630
0.398794706597107	0.697910453052650
0.398802976865022	0.697944371426524
0.399623631806996	0.699408630982537
0.400721431385809	0.701362226141714
0.401378414993015	0.702542907316919
0.401169289410477	0.702202940645459
0.400243022137787	0.700604165962776
0.399224182332686	0.698844549796884
0.398799357290466	0.698131083529901
0.399262500911375	0.698980481729869
0.400320263970378	0.700876943119325
0.401286208014642	0.702613590811498
0.401535303855006	0.703091507469224
0.400917767119595	0.702047282700273
0.399858208452911	0.700227325868244
0.399074446098915	0.698893523936968
0.399102170664395	0.698987576452259
0.399940207586551	0.700507347956953
0.401051268533805	0.702508189800080
0.401717694494837	0.703728357142209
0.401516634084674	0.703424399636410
0.400600016032438	0.701863369159701
0.399593931076569	0.700145927740191
0.399184048026741	0.699477485743926
0.399661582430393	0.700369989153469
0.400730456469827	0.702302895530549
0.401703339826405	0.704067824394297
0.401956762086136	0.704568669756558
0.401343941934374	0.703547376237378
0.400291976326388	0.701754802135651
0.399519035077863	0.700453530541484
0.399558821209350	0.700581842690123
0.400407177088982	0.702132430379259
0.401524837044078	0.704157233790806
0.402194503258165	0.705395199476934
0.401995805151192	0.705107284075910
0.401083645396887	0.703565800656581
0.400085624048887	0.701874082967229
0.399686461207716	0.701235875546841
0.400174593842065	0.702158223908871
0.401251168926956	0.704115672248070
0.402227908304978	0.705898119562730
0.402482827729425	0.706411998017824
0.401872053401992	0.705404268363435
0.400825049585874	0.703629834386363
0.400060201562073	0.702351520895356
0.400109081498151	0.702503705704458
0.400964406248339	0.704073409182098
0.402084793068847	0.706108654794943
0.402753164136413	0.707348564342955
0.402551480863927	0.707057967751018
0.401637460852392	0.705513887457007
0.400640048405251	0.703821770395701
0.400242853489020	0.703183151234350
0.400731387068372	0.704099667851271
0.401803893213898	0.706040494994949
0.402771036807860	0.707793408168030
0.403012223461949	0.708267021585946
0.402386398293682	0.707212997628486
0.401325312295991	0.705390016683685
0.400547500471789	0.704060937150834
0.400582363206235	0.704156106430364
0.401419483316043	0.705656843409140
0.402515385959198	0.707607325689217
0.403153266401319	0.708747014225561
0.402917491579639	0.708344856808227
0.401968683495531	0.706682903228124
0.400937238023493	0.704869108471564
0.400505787250708	0.704103281138344
0.400957080744240	0.704882236331647
0.401986659116382	0.706670468191765
0.402904359937340	0.708254411417601
0.403091229093424	0.708545719757386
0.402409292887325	0.707301670855487
0.401292859558772	0.705285681722106
0.400460895403030	0.703761651826030
0.400440927558533	0.703656959226828
0.401219723813681	0.704948337549850
0.402252053764418	0.706677279793692
0.402821730533700	0.707584770841108
0.402515868153136	0.706945059136629
0.401498323377653	0.705046382978695
0.400401261414061	0.703000336855417
0.399906645703985	0.702006106500469
0.400294769807457	0.702556761761476
0.401258772508584	0.704113162568575
0.402107955273128	0.705461400939241
0.402225274017138	0.705517095370396
0.401476074478227	0.704043968428027
0.400297424607347	0.701810895655178
0.399408891255721	0.700083432003395
0.399336270511047	0.699786500012239
0.400063634434361	0.700892665194231
0.401044091639356	0.702441050297528
0.401562135262135	0.703174359772425
0.401207646795441	0.702372201371484
0.400147690825347	0.700328912680775
0.399016129233437	0.698159492719477
0.398494145776987	0.697062136572350
0.398859436879918	0.697525683447070
0.399802572256984	0.699006764328413
0.400632121420418	0.700290421949348
0.400732719244217	0.700295411924976
0.399972759179157	0.698790946590467
0.398791757011951	0.696550281816559
0.397909535559809	0.694839443971117
0.397849793552378	0.694579634069733
0.398593528291472	0.695737922403470
0.399591798567216	0.697349683788758
0.400129375810187	0.698157914334067
0.399798489507443	0.697446100412024
0.398768973664143	0.695513149552638
0.397675935080230	0.693475903533890
0.397199323807009	0.692529998538389
0.397613794489037	0.693158495364538
0.398606919436663	0.694812287404322
0.399486124225936	0.696273905009090
0.399637322565602	0.696463821649762
0.398931563615959	0.695155363382590
0.397810428834527	0.693124842261114
0.396993632840021	0.691637503499781
0.397002442033643	0.691609670201901
0.397814481840692	0.693001876936982
0.398878504034042	0.694844833614980
0.399479336677317	0.695881030305529
0.399211364478813	0.695397144817631
0.398247023574246	0.693696074303868
0.397222526843455	0.691896036785718
0.396816488264509	0.691189772049770
0.397300462991390	0.692054368892518
0.398359015990028	0.693934938764899
0.399298462667023	0.695611596636201
0.399506064208422	0.696006755299356
0.398855620747932	0.694898184010924
0.397790898363154	0.693065680835435
0.397031649502053	0.691774242944022
0.397096887687218	0.691935959546387
0.397961083116528	0.693505587080278
0.399070931617832	0.695510032445256
0.399711594253992	0.696692225084118
0.399479901405881	0.696343038420431
0.398551188124585	0.694770403254534
0.397563075348434	0.693094990239592
0.397193152332638	0.692507753252824
0.397710200094364	0.693480956137955
0.398796115506885	0.695455106144539
0.399756450057436	0.697209093525267
0.399980154424407	0.697668448713776
0.399344107299241	0.696616526858686
0.398294568121893	0.694837706212290
0.397551619442454	0.693597780877129
0.397632303474693	0.693805607543737
0.398508209698681	0.695411124527260
0.399624242991647	0.697438346280982
0.400266144556588	0.698631484757123
0.400033409787298	0.698286364360107
0.399104458148969	0.696716604151724
0.398118471272832	0.695045881143844
0.397752140112373	0.694463826506993
0.398271579174003	0.695438264048553
0.399356109036923	0.697405408387124
0.400310589683075	0.699143157272794
0.400525706671641	0.699580298954556
0.399881429223938	0.698505812613360
0.398826488247433	0.696708593708882
0.398081247052313	0.695455082603951
0.398160709589436	0.695650684946369
0.399033507739806	0.697240250977356
0.400142670151722	0.699244587254294
0.400774420060913	0.700408823019123
0.400530800788919	0.700033311610984
0.399593177756552	0.698436881206187
0.398602137867266	0.696745690752647
0.398233311204260	0.696147500420933
0.398749986313603	0.697105144047864
0.399828756630146	0.699050005837542
0.400773646995482	0.700758467054422
0.400976935621529	0.701162057329181
0.400321536530242	0.700054866151688
0.399258503523041	0.698229799905703
0.398508336374568	0.696953462211477
0.398583870866679	0.697127368753859
0.399450673301104	0.698690902810107
0.400549811022696	0.700661348246347
0.401167921781819	0.701784493450650
0.400909539464298	0.701365007753776
0.399958924270014	0.699726754875968
0.398958025909734	0.697998246666496
0.398581387462120	0.697365301490481
0.399089469492323	0.698285764195420
0.400156163133934	0.700186265631392
0.401084705492124	0.701841815205937
0.401269028540129	0.702186879225705
0.400595057874445	0.701020887618322
0.399516240100587	0.699141016173590
0.398753288403831	0.697814323118214
0.398816961255134	0.697938767863611
0.399669868473655	0.699448647509817
0.400751241288478	0.701358144295357
0.401348264910380	0.702414149248305
0.401068094302894	0.701926092394296
0.400098005995039	0.700223304059583
0.399081425290259	0.698437063378484
0.398691917818920	0.697751650989191
0.399187228448499	0.698620323708319
0.400238662230269	0.700465355825264
0.401148783167537	0.702060764802263
0.401313280329062	0.702344296755973
0.400621174392514	0.701121010836451
0.399528365792731	0.699192579696414
0.398755823784229	0.697826687516652
0.398812261226475	0.697917864004050
0.399657357360627	0.699395409603292
0.400728526408851	0.701270454654713
0.401313506484347	0.702290990071345
0.401022056983301	0.701771136299772
0.400044427551311	0.700045544754511
0.399025451786662	0.698248045989510
0.398637634487444	0.697561111670712
0.399135913909463	0.698433100265607
0.400188914496153	0.700281588608221
0.401098426296768	0.701879227899511
0.401261781463989	0.702166626540267
0.400570962987946	0.700954004815292
0.399484173878003	0.699047016788836
0.398722476691204	0.697713424959555
0.398792374543203	0.697843770422120
0.399650458345029	0.699361803596964
0.400732175345809	0.701275060835149
0.401325669733323	0.702332097249796
0.401043155252263	0.701851186475400
0.400077698641956	0.700171760750239
0.399075383844156	0.698429668936846
0.398707504160051	0.697805066967914
0.399226057290282	0.698740953953856
0.400296874303892	0.700649804452764
0.401220877202068	0.702302552718401
0.401396958869000	0.702642362767671
0.400719987998641	0.701484344584154
0.399650398871730	0.699637898094573
0.398909287292331	0.698370675972820
0.399000906611783	0.698569106119287
0.399878745501835	0.700151338919334
0.400976295904480	0.702121340297970
0.401582138508437	0.703228314288323
0.401310981849915	0.702794817402684
0.400358755034325	0.701165227061002
0.399372843811611	0.699477610321084
0.399023394081404	0.698910052247449
0.399559546268664	0.699900491779325
0.400644442048822	0.701856654911883
0.401578254616044	0.703548154915298
0.401761562280752	0.703921129470571
0.401092240820239	0.702795999874102
0.400033070770375	0.700986328441581
0.399305293211612	0.699760072180509
0.399411027249861	0.699999965536790
0.400300782247098	0.701618987692844
0.401406222720517	0.703617964410926
0.402016490242128	0.704747162225455
0.401748898960370	0.704333796616496
0.400802331436428	0.702727514993317
0.399825547299347	0.701068874658391
0.399487604206877	0.700534117364178
0.400034838096252	0.701556314257494
0.401127749496441	0.703538601334023
0.402065801721520	0.705249385721712
0.402251279331957	0.705637833316844
0.401585060521195	0.704529657270746
0.400532240551889	0.702742486093285
0.399814152830549	0.701544417858621
0.399930716533799	0.701814279022002
0.400829389681299	0.703459623935629
0.401939931196507	0.705477847225638
0.402551953643252	0.706619941566473
0.402285268149072	0.706217389485819
0.401341580363592	0.704624658179284
0.400370875657939	0.702984296556355
0.400040966913771	0.702470175650425
0.400595230414879	0.703509963269956
0.401691376732201	0.705501674187336
0.402628015126858	0.707211983357931
0.402808991045772	0.707592557840242
0.402138033965769	0.706473870644688
0.401082398219277	0.704677085901072
0.400363357159342	0.703469931484262
0.400478491679371	0.703726856910885
0.401372092239862	0.705349583338288
0.402471919687393	0.707331733126562
0.403067984285246	0.708424746841979
0.402782533717609	0.707964150955584
0.401820046513006	0.706309062887488
0.400831697696431	0.704603916727719
0.400484042304414	0.704020187476827
0.401017515780074	0.704980212896679
0.402087093098934	0.706877066340685
0.402990615965769	0.708475971882351
0.403133601466979	0.708731467149502
0.402422758422592	0.707479230281519
0.401327644162537	0.705544479071075
0.400569636591853	0.704195169378034
0.400644171065710	0.704302063611788
0.401492595934975	0.705761837110268
0.402540929968259	0.707565218468252
0.403079859240552	0.708465047828376
0.402734357920122	0.707801898804110
0.401711972479065	0.705940578026719
0.400665367668074	0.704028474940465
0.400260150623636	0.703235773713491
0.400734140640866	0.703980625845320
0.401739916318560	0.705652339989604
0.402574898410557	0.707015880987834
0.402646618264500	0.707029838037165
0.401865092517481	0.705536241216668
0.400702491474007	0.703365461267887
0.399880591289390	0.701786732047282
0.399892964403787	0.701668133195118
0.400678291276178	0.702902252201918
0.401661110763797	0.704477823928481
0.402133025391151	0.705149908634753
0.401721944059206	0.704264844478755
0.400638650289085	0.702193725520974
0.399537428785921	0.700087372322417
0.399083035851898	0.699115038305954
0.399510744695679	0.699690941196853
0.400470782095930	0.701200770269764
0.401260161932311	0.702409258912375
0.401288404649048	0.702278941691362
0.400468763164153	0.700657947492912
0.399275901917443	0.698381398506343
0.398431835134181	0.696719268023250
0.398428080038017	0.696536294948976
0.399200431690035	0.697720215773334
0.400171707131263	0.699256907348588
0.400634154187126	0.699902679357823
0.400218310018236	0.699008550459071
0.399137851516022	0.696950705703966
0.398048307617021	0.694882101740891
0.397613186579251	0.693969691334026
0.398064807718642	0.694622338297668
0.399050633668448	0.696220658680631
0.399866854012683	0.697527671930322
0.399924551203403	0.697508345101752
0.399139774497000	0.696015363425075
0.397989232382062	0.693887039740677
0.397194726162806	0.692392530378083
0.397245278031831	0.692391709178648
0.398073378344422	0.693765992079376
0.399099726286522	0.695496994124624
0.399616838871347	0.696340936368357
0.399257520295402	0.695652242375906
0.398237993175964	0.693810977960362
0.397214701849561	0.691971104987726
0.396849606619931	0.691296246162892
0.397371811836333	0.692189004728142
0.398425798343879	0.694024150967793
0.399306754690669	0.695562350266116
0.399427182547905	0.695770484388779
0.398705812709487	0.694505390534438
0.397621310451399	0.692608281355510
0.396895210146692	0.691347329256581
0.397014026402094	0.691577514027060
0.397906978912970	0.693174048145192
0.398992727988014	0.695114543551248
0.399564175787320	0.696155516888630
0.399256536726179	0.695655286540076
0.398288743455347	0.693998380771039
0.397318341551348	0.692340437183955
0.397005956010150	0.691842512935364
0.397577720781164	0.692901813689516
0.398675411294767	0.694888220403431
0.399593516168492	0.696561076714862
0.399746270862936	0.696890262132342
0.399055405743603	0.695737876461818
0.398001860192645	0.693949157428546
0.397307220557303	0.692792431754354
0.397455819481965	0.693118939744805
0.398373940783528	0.694798859995859
0.399478545867538	0.696806973479451
0.400063257413169	0.697901244611363
0.399766019705479	0.697444994219880
0.398808772385111	0.695828259072625
0.397850436536440	0.694209332563021
0.397550558749795	0.693747625667833
0.398132547709008	0.694835811365558
0.399235707600689	0.696839689934193
0.400154044604041	0.698518022915894
0.400303719315685	0.698844339365483
0.399609619094125	0.697686550282491
0.398555079344954	0.695894359889652
0.397861830027894	0.694736592033963
0.398012091508526	0.695061006246820
0.398929265316553	0.696732932560737
0.400028651116499	0.698724433218433
0.400604606858424	0.699794950438490
0.400297791886184	0.699312744585978
0.399333105552519	0.697673202248882
0.398370768815929	0.696037028048511
0.398069155265827	0.695561675872168
0.398648844344211	0.696634928930127
0.399746560299523	0.698618115360635
0.400655711457426	0.700268989065682
0.400794255494008	0.700564262592887
0.400090091629539	0.699377147879418
0.399028790605425	0.697561268021783
0.398332057767854	0.696385377275118
0.398479836206478	0.696693191655341
0.399392491327094	0.698344651860405
0.400483519732496	0.700308588898644
0.401047881181602	0.701345434092682
0.400728818279564	0.700827915062855
0.399754057636267	0.699156311503578
0.398784991267518	0.697493308597694
0.398478703746489	0.696994017225431
0.399052850992261	0.698041007591504
0.400141508389149	0.699990883343173
0.401037439439116	0.701600204736337
0.401160366253216	0.701848735754654
0.400441175168919	0.700614900462330
0.399367654677053	0.698756194128837
0.398661480581279	0.697541306239690
0.398800334430924	0.697809979049630
0.399701586875406	0.699416906273815
0.400776996698700	0.701327898099616
0.401322206732846	0.702304637816579
0.400983130709143	0.701724616917345
0.399990411418033	0.699993326400934
0.399006703017680	0.698275771039068
0.398687900328536	0.697725086225204
0.399248849051077	0.698719032381887
0.400321103724353	0.700609925541238
0.401196919594895	0.702153588672944
0.401297918164873	0.702333291797083
0.400558097545348	0.701033105289692
0.399467575612148	0.699114802237598
0.398748101044004	0.697847387891324
0.398875193645629	0.698066994639884
0.399763330341067	0.699623420297687
0.400822631824817	0.701479785293330
0.401349514155048	0.702399318876731
0.400992633300287	0.701764514472203
0.399985595082808	0.699986245416758
0.398992340164212	0.698231941601297
0.398667582476314	0.697652814016343
0.399223357992622	0.698621821593055
0.400288694739110	0.700486961641269
0.401155323530639	0.702003241580286
0.401246730501866	0.702157298120422
0.400499965843634	0.700838637000729
0.399407392003676	0.698913027267453
0.398690727088479	0.697649449942500
0.398823216447674	0.697880047603535
0.399716327994646	0.699449316047364
0.400778426804384	0.701317256544739
0.401306576999604	0.702248184718743
0.400952037411384	0.701629097365235
0.399951220925558	0.699875711411788
0.398969186648783	0.698157313967145
0.398659297042051	0.697622614602005
0.399230614740355	0.698639204597440
0.400309488974207	0.700550218203386
0.401186982739682	0.702109323768624
0.401288305917641	0.702306013956195
0.400553417467078	0.701034726349103
0.399476779628122	0.699164734280403
0.398779940991766	0.697964530312530
0.398933749185874	0.698261850249688
0.399846562325105	0.699895532402689
0.400924911659514	0.701822167068382
0.401466447826522	0.702806919317635
0.401124980209568	0.702241095564320
0.400139682184170	0.700545100546985
0.399176693551211	0.698889966803433
0.398888004225437	0.698421848702187
0.399479706599900	0.699502987105456
0.400575500490452	0.701471744607625
0.401465831861866	0.703080606560363
0.401577697551041	0.703322125234133
0.400854033293104	0.702095906247629
0.399791472099376	0.700274990769670
0.399111471441093	0.699127679356992
0.399282573966932	0.699477640040683
0.400210138960091	0.701158439229051
0.401298990259432	0.703123680543264
0.401847498170738	0.704139823059967
0.401512152480586	0.703602926701968
0.400535007654422	0.701938513435958
0.399583396374878	0.700319774260005
0.399308045593073	0.699890711821778
0.399912190113483	0.701008617156043
0.401016996611387	0.703007476653424
0.401912407777863	0.704638969120187
0.402027308743586	0.704899043592662
0.401307692753268	0.703692754548306
0.400252421685684	0.701897129519039
0.399582901928992	0.700780439250721
0.399765400512426	0.701162401091531
0.400702301219796	0.702871388315878
0.401796736105081	0.704858054358959
0.402347795796335	0.705890133133587
0.402014627898821	0.705368348520388
0.401042118285530	0.703723173229359
0.400098718933254	0.702129719572558
0.399833804716786	0.701729546484677
0.400447656639853	0.702874664646380
0.401558808379649	0.704894323156885
0.402456592758134	0.706538999476411
0.402571663129943	0.706807601695542
0.401852931774535	0.705610146836780
0.400801333811172	0.703827119358170
0.400138059596755	0.702726204939896
0.400326936816913	0.703122611473289
0.401267218936761	0.704838974245943
0.402360201511083	0.706822471752481
0.402905556323661	0.707841604222558
0.402564949430628	0.707301261283171
0.401585956968485	0.705636379874071
0.400638012480865	0.704023532021035
0.400369014501266	0.703601417880514
0.400976189152901	0.704716420127038
0.402075363592543	0.706692781575284
0.402955212260156	0.708279586811262
0.403048126672922	0.708478580354353
0.402305921413309	0.707204681651476
0.401231602113710	0.705341837865148
0.400546161221027	0.704157235095130
0.400711035187032	0.704461754349905
0.401622431125177	0.706072583737924
0.402679926930648	0.707933824445462
0.403183922183695	0.708815234847439
0.402798767278508	0.708126440579899
0.401774909099888	0.706307482086638
0.400782959703541	0.704537100895485
0.400469561160705	0.703951927782888
0.401029133465539	0.704893594085574
0.402075075305961	0.706682297770772
0.402895703504705	0.708066761477895
0.402925460593029	0.708052643781942
0.402119379225134	0.706560870277526
0.400982850912472	0.704479970002933
0.400236988081199	0.703077764147334
0.400341161689571	0.703161961046459
0.401188868299476	0.704545473761473
0.402178309574854	0.706170502811626
0.402610949708524	0.706809222181940
0.402154144242283	0.705877106090264
0.401061508483182	0.703820348007573
0.400005107290941	0.701820839499925
0.399630581926008	0.701014056524613
0.400129787863988	0.701737730666528
0.401113922404571	0.703308798006042
0.401871150260067	0.704476316745094
0.401838138314241	0.704250448902622
0.400973269822804	0.702558588700179
0.399784411588959	0.700294175452958
0.398992846704551	0.698725864895717
0.399055899812354	0.698658273862272
0.399864349101270	0.699900009731489
0.400814983458752	0.701391226038161
0.401210259291928	0.701906237614989
0.400720421142570	0.700865950566217
0.399602089558298	0.698722148005136
0.398528575872699	0.696659169928819
0.398144280154460	0.695810515881532
0.398638228055687	0.696509094989097
0.399619129431954	0.698067568349803
0.400374687804619	0.699234226166344
0.400343456558262	0.699022534182084
0.399486799165620	0.697365057617187
0.398314657339548	0.695158760249025
0.397548063583135	0.693671680016897
0.397641865873438	0.693703850003084
0.398483693424730	0.695058061446944
0.399468493854287	0.696670902710930
0.399899286079518	0.697317304166198
0.399448768341405	0.696422070154179
0.398376125411491	0.694441037709741
0.397355475017051	0.692559475562311
0.397029548305854	0.691907429488987
0.397584136688896	0.692811576465746
0.398625086985720	0.694578976059687
0.399439293342948	0.695955910036218
0.399466869504999	0.695957989189049
0.398671851207689	0.694521870707865
0.397565967258959	0.692547051069474
0.396869739935113	0.691300063729556
0.397035319264648	0.691575597433427
0.397947009314597	0.693170007233927
0.398997785188451	0.695015838458018
0.399491135739187	0.695888291682444
0.399102151315791	0.695215843902426
0.398092546560323	0.693458273761427
0.397137241194771	0.691801783939977
0.396877330191811	0.691373100714426
0.397495447096811	0.692492941906617
0.398594696543373	0.694463176472763
0.399461322419610	0.696028612838529
0.399537186004187	0.696207644835968
0.398789201833185	0.694941743406509
0.397731108861824	0.693133734062661
0.397083162010787	0.692049517865571
0.397295081595680	0.692479391880979
0.398248142407668	0.694214306990826
0.399333666091723	0.696183863619256
0.399855943424251	0.697164673208877
0.399492790438294	0.696590042993215
0.398508779768518	0.694924849661823
0.397579955594352	0.693357379113971
0.397346098166125	0.693012182823610
0.397987007946583	0.694205161791072
0.399103374622980	0.696234127567894
0.399981114056335	0.697843521226577
0.400064141309020	0.698055574446727
0.399322531021254	0.696817555479551
0.398272286018896	0.695036522623687
0.397633623977584	0.693978571967450
0.397854048629654	0.694430368611014
0.398812005403541	0.696178155335948
0.399897346627377	0.698149213548804
0.400415325417286	0.699122105742329
0.400046611517184	0.698535407633243
0.399058727172869	0.696859422718349
0.398128899334412	0.695284744892446
0.397895626718736	0.694933886559528
0.398535892815366	0.696117993783888
0.399647974365045	0.698130815502266
0.400517443586886	0.699716348945120
0.400590229172462	0.699900506093737
0.399839496302588	0.698636108123591
0.398783414144881	0.696834120551829
0.398142045597307	0.695760445158708
0.398360550752755	0.696197684070130
0.399314416523357	0.697926916213108
0.400391895567293	0.699872629080480
0.400899067063213	0.700814837997127
0.400519306584565	0.700196859812138
0.399522925185381	0.698493870201709
0.398588164335909	0.696898202892311
0.398352075698846	0.696529771423284
0.398988672638738	0.697694436304694
0.400093682327370	0.699681393393431
0.400952210542996	0.701233744431176
0.401012084129108	0.701380660584454
0.400249445833291	0.700080119723913
0.399184521807496	0.698246627682227
0.398537121666673	0.697145569185763
0.398749983568242	0.697555222965280
0.399695583747705	0.699251317724294
0.400760548231035	0.701155433964550
0.401251773648862	0.702048988483555
0.400855343099410	0.701380035513057
0.399844364545303	0.699628659528013
0.398898111170273	0.697989015007687
0.398652221073298	0.697578553328444
0.399277793792668	0.698698051814883
0.400368086965915	0.700632421002291
0.401207837722575	0.702124187552727
0.401246876853540	0.702206135215610
0.400464430466262	0.700841768104340
0.399382885503263	0.698949511601180
0.398721904359835	0.697794626616749
0.398921918070700	0.698151483873659
0.399852518981667	0.699790901707312
0.400898841822299	0.701632008545262
0.401368735492043	0.702458073319616
0.400951114948828	0.701722313217137
0.399921993419409	0.699910109109753
0.398961769585885	0.698217785252593
0.398704753433219	0.697760649374271
0.399319213642599	0.698834691239386
0.400396019406286	0.700720807433306
0.401219612460700	0.702161184057199
0.401241883606412	0.702192396834533
0.400445173932466	0.700783586161681
0.399354037464654	0.698857134971155
0.398687975980648	0.697678155474463
0.398885088453029	0.698017036567155
0.399812051979583	0.699639572472474
0.400852470921540	0.701462283985075
0.401315092950564	0.702270083762580
0.400891589563059	0.701521078805978
0.399860779335124	0.699705605121759
0.398904066184760	0.698021756629337
0.398654300495311	0.697582256600251
0.399276786124001	0.698677843498603
0.400359870840307	0.700584922022499
0.401187565876014	0.702044842933852
0.401213678209186	0.702097453750710
0.400423506793930	0.700716980701224
0.399343603994083	0.698829189699754
0.398693138582912	0.697698462907209
0.398907711698977	0.698090640586220
0.399850932997894	0.699765956087546
0.400904738128972	0.701637819515122
0.401378643628905	0.702492311432350
0.400966949683390	0.701791971749345
0.399951152384179	0.700031652713978
0.399013537714135	0.698410807649075
0.398785387119089	0.698039212046424
0.399428952567746	0.699202053397214
0.400529998427870	0.701171014993932
0.401372064441646	0.702686446911993
0.401410845935905	0.702791354356995
0.400634578978985	0.701464976310078
0.399571800481853	0.699636429502536
0.398941345337078	0.698569384972259
0.399176336863442	0.699025217720918
0.400137362644792	0.700758754851504
0.401204757954627	0.702680516050436
0.401688891310081	0.703578019572990
0.401286780269178	0.702918539279762
0.400282687783545	0.701201764974770
0.399359873675831	0.699628851464580
0.399148150957801	0.699306997531598
0.399806834536565	0.700516246551785
0.400919234583672	0.702523999963265
0.401768556225856	0.704070064303238
0.401812517420285	0.704201055804442
0.401042414766827	0.702901657803142
0.399988880210371	0.701104740717764
0.399370516574666	0.700073642791335
0.399618069029794	0.700565635861565
0.400589203921887	0.702330489440376
0.401662754908671	0.704276159506050
0.402150030491784	0.705191888929205
0.401750833513887	0.704549913948624
0.400752236945468	0.702854921676010
0.399838495216644	0.701309861986608
0.399637958493464	0.701019395775979
0.400307001844745	0.702258417459690
0.401426471681692	0.704290000403444
0.402279217285127	0.705853311377333
0.402324938221668	0.705998417483121
0.401557924960645	0.704715212829057
0.400510812772260	0.702940016769826
0.399901862757751	0.701935472943805
0.400159323854503	0.702454349904905
0.401137821041344	0.704240934767230
0.402214564109318	0.706200172924690
0.402701671714767	0.707122556395701
0.402301588499097	0.706484772415258
0.401304038892509	0.704795959225745
0.400394103830010	0.703260294339735
0.400198503227037	0.702979334066782
0.400870515264499	0.704222278971423
0.401988380107375	0.706247362827330
0.402834460794576	0.707792634318588
0.402870314236624	0.707911159962751
0.402093102682812	0.706597617153389
0.401037346995158	0.704791378405991
0.400420861503663	0.703754047053125
0.400669316897861	0.704233614411653
0.401634244619777	0.705968698160775
0.402691208222798	0.707861135766657
0.403153138134254	0.708702653017108
0.402725139594855	0.707974444848129
0.401699621960565	0.706190226628766
0.400762544842024	0.704555607063417
0.400539077132376	0.704169334347054
0.401179513792339	0.705295317722879
0.402259638426242	0.707187462377829
0.403061508125227	0.708583307996330
0.403048738895106	0.708539610179232
0.402221580607201	0.707056584971710
0.401116668217034	0.705077474160060
0.400451614980144	0.703863722669901
0.400649782629601	0.704159500126144
0.401559904710018	0.705698784976573
0.402556216373474	0.707381400095252
0.402952789960372	0.708001439529505
0.402457722958154	0.707045757669534
0.401366436407123	0.705033799615496
0.400366090773761	0.703173753880130
0.400080626324994	0.702562708056357
0.400657681442088	0.703460427910910
0.401670912537454	0.705117629865370
0.402402394665198	0.706272456339064
0.402318109823099	0.705986409753910
0.401421676021237	0.704266226626813
0.400252093431937	0.702059913362468
0.399526999335364	0.700629566276935
0.399667651234944	0.700716262797512
0.400520171572419	0.702049991296572
0.401457631957451	0.703529117924378
0.401795380310092	0.703950551842194
0.401244599169063	0.702807122782049
0.400103768419516	0.700624179670906
0.399061253270433	0.698612525447400
0.398739733237742	0.697867493745637
0.399284128862812	0.698644496956071
0.400265880663386	0.700190739231414
0.400966960889866	0.701244521080038
0.400855557047111	0.700871513709312
0.399938449917312	0.699084255428649
0.398756756072398	0.696834662878685
0.398027852537181	0.695384510726646
0.398170583223992	0.695470714312554
0.399028132262103	0.696818121984499
0.399972063483463	0.698322419161670
0.400318634700018	0.698782029262487
0.399781721486248	0.697694376462868
0.398662444147820	0.695589258149633
0.397649934709840	0.693678579987398
0.397365166074297	0.693054380164430
0.397949898035513	0.693966171941061
0.398972920657332	0.695656113125408
0.399715675917219	0.696861144200991
0.399648131804639	0.696649601305767
0.398779806762876	0.695038336849650
0.397653512196931	0.692981718765504
0.396985956570740	0.691739792932657
0.397193186764163	0.692043983359246
0.398115097954506	0.693612766325250
0.399121429378780	0.695338018429137
0.399529061030807	0.696018649441147
0.399054297282651	0.695155744388663
0.398000656782110	0.693282711046392
0.397057823648990	0.691611827350113
0.396844886181694	0.691231232064733
0.397500310406941	0.692384078079042
0.398590150196149	0.694307163579039
0.399395274091582	0.695735895975169
0.399387421576936	0.695741228656099
0.398578867370865	0.694344393571236
0.397514163288203	0.692502386064603
0.396909426992107	0.691473817307521
0.397178025193102	0.691985041721944
0.398156723201614	0.693748715421707
0.399213633102659	0.695653577960278
0.399666483281473	0.696499796302478
0.399234251442885	0.695792963526484
0.398223111433691	0.694071006080292
0.397323569293547	0.692547539656410
0.397153116502542	0.692307829783750
0.397847235125352	0.693589757538801
0.398969573062550	0.695625903994263
0.399800767757718	0.697151319676702
0.399814673016398	0.697240758971471
0.399026653773831	0.695921002543269
0.397983324277468	0.694152816888093
0.397400524744267	0.693194497118718
0.397689251772238	0.693768425918819
0.398683449570064	0.695582514928096
0.399749906029909	0.697523407692517
0.400207485327219	0.698393513406729
0.399778100229180	0.697703840664573
0.398770810649126	0.695997651993925
0.397877146453918	0.694490628644347
0.397713181904259	0.694265810396214
0.398411578488191	0.695556382511640
0.399533726097429	0.697591213476436
0.400360158059790	0.699105419376944
0.400366939962940	0.699177880618722
0.399572588897900	0.697841143842915
0.398525808551826	0.696059857943912
0.397942160817475	0.695092020799875
0.398230252700185	0.695655987748769
0.399221175215777	0.697454808561205
0.400280346877365	0.699372853259884
0.400727703666173	0.700214528493657
0.400288004557244	0.699495938877866
0.399273080582836	0.697765290157482
0.398375350135295	0.696239876734316
0.398209324893315	0.696000022714250
0.398904699839219	0.697273710851310
0.400020464283367	0.699285584626576
0.400836905522230	0.700770306977544
0.400832153691103	0.700810352985221
0.400027721740534	0.699443488796804
0.398974239934476	0.697637692466716
0.398386830975124	0.696650123491304
0.398671563787042	0.697194602651452
0.399656546751204	0.698968859635731
0.400705718392564	0.700854584403375
0.401139988908377	0.701657818694002
0.400686872365562	0.700899435820553
0.399660884216432	0.699132290836409
0.398755253636821	0.697575040376136
0.398582869665608	0.697305101463676
0.399270425984996	0.698545136531703
0.400374503491255	0.700515523154560
0.401175157398163	0.701950497929897
0.401152609458608	0.701936209398826
0.400331402081347	0.700515761468889
0.399264131736396	0.698660616898771
0.398665533038347	0.697627297536124
0.398939206567989	0.698125346104889
0.399910369832198	0.699847488118330
0.400941591664616	0.701673100058988
0.401354876290813	0.702410257332080
0.400880612562745	0.701585012541803
0.399836114929978	0.699755280690831
0.398915534576447	0.698141491136040
0.398730251901141	0.697818571565371
0.399404081243062	0.699004294815482
0.400491324541443	0.700915212093117
0.401271934839313	0.702285566329838
0.401228345678623	0.702205584230809
0.400388231577900	0.700724067495749
0.399306239005209	0.698816273760970
0.398696784352159	0.697738353611741
0.398961062762379	0.698195804232268
0.399921460338823	0.699876549760459
0.400939229239369	0.701657819260813
0.401337506078856	0.702349835330860
0.400849569735951	0.701483874965228
0.399795522277004	0.699622882988101
0.398870402430466	0.697988962085062
0.398684032548682	0.697654396381598
0.399357290673647	0.698831873565068
0.400442137228701	0.700733885885202
0.401218350450348	0.702094406357836
0.401170485493030	0.702007408402291
0.400329236343044	0.700526998107264
0.399251165943933	0.698631777618474
0.398650225926283	0.697577035222754
0.398925056300482	0.698063710895565
0.399895065241717	0.699774409130623
0.400920044573831	0.701583689231501
0.401324116909533	0.702303387913373
0.400843296032668	0.701469455475141
0.399800306566151	0.699649298638568
0.398890905392990	0.698066121807193
0.398723193037394	0.697789010956696
0.399414961964581	0.699025049839809
0.400515699434742	0.700982197277823
0.401304891278878	0.702393722743993
0.401269103842221	0.702356944128531
0.400441942701759	0.700930895275583
0.399381783500313	0.699097176643376
0.398802020925517	0.698109913417226
0.399098668399797	0.698665250462607
0.400088110708668	0.700440307987409
0.401128658194134	0.702306881935127
0.401545415394714	0.703078388213888
0.401077136130752	0.702295460311674
0.400049178612995	0.700530015326955
0.399158038110815	0.699006451471420
0.399010130178417	0.698790804172620
0.399720221392074	0.700084765758725
0.400835408677041	0.702092037742912
0.401634984952112	0.703545512246330
0.401607634134349	0.703546208261321
0.400789979145458	0.702158458555167
0.399742312174708	0.700367242442294
0.399177577625218	0.699425917130892
0.399489278241788	0.700026250175666
0.400490903278098	0.701840319386655
0.401539417326782	0.703737612786569
0.401961041056970	0.704533574553397
0.401497391236570	0.703773943564304
0.400476566372809	0.702035530727030
0.399595892612702	0.700544273084209
0.399460185213080	0.700363470417684
0.400181267189358	0.701689715290739
0.401303925018759	0.703722717662037
0.402107329623114	0.705195218462700
0.402082334975603	0.705212105844916
0.401268608572222	0.703843107923638
0.400228360885466	0.702076606085208
0.399674068354822	0.701165149489473
0.399996694039777	0.701796038889089
0.401006795940961	0.703636178968115
0.402059948583097	0.705552575047064
0.402483428902857	0.706362469446130
0.402021634144183	0.705616409878971
0.401005296030481	0.703895736316324
0.400132444940153	0.702427502697214
0.400006159168229	0.702271813330209
0.400735180156064	0.703619681387501
0.401861847688020	0.705666334493893
0.402665072896283	0.707143858069955
0.402637734201627	0.707160484226039
0.401822386554739	0.705790787719544
0.400782992851286	0.704025988693710
0.400231395870049	0.703117270111389
0.400555864130549	0.703746935889889
0.401563887309278	0.705576232045304
0.402609530738655	0.707469244552217
0.403021021258547	0.708244621024258
0.402545437379242	0.707457362961732
0.401516051110584	0.705693024261381
0.400631516208022	0.704179514119433
0.400493115118417	0.703973553716176
0.401206479381576	0.705260481015121
0.402311506943664	0.707231044304404
0.403086882981372	0.708616769863009
0.403027565652598	0.708529411766631
0.402179068797065	0.707048642741037
0.401107196106620	0.705168848244920
0.400523268571724	0.704140258373644
0.400813003523075	0.704640693818292
0.401781001057743	0.706326361651132
0.402780028315451	0.708059147249604
0.403139496586943	0.708659903897781
0.402609414448926	0.707688949953548
0.401525852547178	0.705736967662063
0.400588357763181	0.704033686972534
0.400396703698261	0.703633468842497
0.401053720746241	0.704717059908402
0.402097194061514	0.706471866718690
0.402805923990656	0.707630028294937
0.402677290240143	0.707308001578069
0.401760099044053	0.705591725928886
0.400622317416481	0.703479898273325
0.399975059433771	0.702222919659797
0.400201803465204	0.702495232151157
0.401104570849296	0.703949085777403
0.402035134487097	0.705445209366939
0.402324376584156	0.705807643992222
0.401725493986545	0.704602920936378
0.400577580193589	0.702427645835788
0.399581266722452	0.700514061073608
0.399334982851536	0.699914761558817
0.399938900170719	0.700806403943558
0.400928810503728	0.702373457013770
0.401583718970733	0.703348964088261
0.401403476898143	0.702854244848983
0.400440186648331	0.700981519850892
0.399263935901407	0.698733665558145
0.398585549106903	0.697360986222881
0.398786151257819	0.697534156551506
0.399665043720513	0.698900969223670
0.400572835644726	0.700320383392745
0.400841675954809	0.700618892762168
0.400227704600596	0.699368375904898
0.399072750751162	0.697170367068154
0.398078207431535	0.695258511541435
0.397840811093946	0.694682436717230
0.398457710294168	0.695613437511875
0.399462327666163	0.697231715234338
0.400133483365684	0.698269831356027
0.399973091669447	0.697852522648758
0.399036121131343	0.696076787665527
0.397894333093619	0.693948135319890
0.397257808609526	0.692715206603566
0.397504870741195	0.693043350570789
0.398431665696282	0.694574373248611
0.399387218412270	0.696163972629823
0.399704534869821	0.696639640793525
0.399142295012488	0.695577185248538
0.398044667665515	0.693581693249844
0.397113425625164	0.691886898357021
0.396943256214363	0.691538231626617
0.397627963791375	0.692700505129637
0.398698319414380	0.694548650068792
0.399432711465562	0.695813860171501
0.399334899473679	0.695623512114853
0.398462525401392	0.694078709385107
0.397388858282865	0.692187029930817
0.396823104174604	0.691195012594190
0.397140695787624	0.691762382873069
0.398134583526347	0.693524811647915
0.399152212717038	0.695334731942283
0.399527488162094	0.696020759988430
0.399021700116396	0.695162870960961
0.397981451934793	0.693370047705518
0.397109018106692	0.691876560242152
0.396997192146873	0.691724205104784
0.397736627764505	0.693071991809284
0.398855674969042	0.695090373948108
0.399632549853786	0.696510063634058
0.399573134489181	0.696462032789610
0.398738030642096	0.695052493985383
0.397702308145922	0.693292137618197
0.397174601379772	0.692426483694151
0.397527771249387	0.693110760552912
0.398551907230987	0.694975669664171
0.399593220578147	0.696871568515031
0.399986860309785	0.697629386006687
0.399497061349978	0.696834427937582
0.398473179083644	0.695100694602724
0.397618291455648	0.693664070135842
0.397523589615141	0.693563754733761
0.398276862081653	0.694953957244302
0.399404316006972	0.697001612899547
0.400184258533280	0.698437851810659
0.400124932520912	0.698398059907892
0.399290105382745	0.696994281151784
0.398256820604291	0.695240940966237
0.397733286444380	0.694383071649557
0.398089917811105	0.695071856118628
0.399114053255989	0.696933405029259
0.400150761631004	0.698816301189468
0.400536502118559	0.699553996653672
0.400038487303615	0.698737236107919
0.399008822672906	0.696985041235806
0.398151357880289	0.695534820678272
0.398055629605461	0.695423014015471
0.398806497104289	0.696798807855310
0.399927951366370	0.698825348014905
0.400698304439385	0.700233859031041
0.400628054655772	0.700163757190740
0.399784007047226	0.698732471700664
0.398745031036980	0.696957663660834
0.398218750420836	0.696083345122946
0.398572975761394	0.696756110693040
0.399592143038244	0.698596942943931
0.400620033662055	0.700452122335108
0.400994273262661	0.701157100774058
0.400484904232412	0.700307537227579
0.399446629611951	0.698526951619116
0.398583919635782	0.697053769674417
0.398484516856506	0.696921199585843
0.399230231628327	0.698272989583770
0.400342741650019	0.700268141561749
0.401100285016690	0.701637676406636
0.401015547629030	0.701524788127843
0.400158310339305	0.700052076927804
0.399109214195693	0.698240267192736
0.398575258793338	0.697332233288825
0.398921633528857	0.697969933889477
0.399929882055219	0.699769252750976
0.400942532781547	0.701574268454240
0.401298428195035	0.702222588937260
0.400770498360487	0.701314982943296
0.399716105498990	0.699479695178085
0.398840408727239	0.697956429054684
0.398729438255365	0.697775465600955
0.399462056102961	0.699075469157940
0.400557745315198	0.701011698298081
0.401294799411372	0.702315401003750
0.401188221734230	0.702133988662231
0.400310891754272	0.700595664399149
0.399245336739392	0.698724634728503
0.398698043284221	0.697763047155895
0.399031693724104	0.698348634958831
0.400025058767479	0.700092594234024
0.401019534141079	0.701837202693354
0.401355291097416	0.702422595762746
0.400808241597672	0.701454974801368
0.399738479496028	0.699567573811564
0.398851906337729	0.698001582872942
0.398732881713216	0.697784519801880
0.399457355092966	0.699050092710896
0.400542644907034	0.700949907289104
0.401267118286784	0.702215480198119
0.401148093662272	0.701998417127058
0.400261520503972	0.700432426188436
0.399191758402328	0.698545025198632
0.398644708902584	0.697577404237254
0.398980465858921	0.698162797306646
0.399974941232521	0.699907405765976
0.400968306275896	0.701651365041169
0.401301956715780	0.702236952844105
0.400754663260608	0.701275365271498
0.399689108245728	0.699404335600852
0.398811778265770	0.697866011337769
0.398705200588628	0.697684598996250
0.399442254684803	0.698988301701919
0.400537943897039	0.700924530842060
0.401270561744635	0.702224534399045
0.401159591272761	0.702043570945316
0.400283894501010	0.700520304821915
0.399229501639514	0.698685017056705
0.398701571804965	0.697777411062740
0.399057467218453	0.698425731545760
0.400070117944781	0.700230747249024
0.401078366471143	0.702030066110523
0.401424741206662	0.702667766711175
0.400890785804307	0.701759732807264
0.399841689660695	0.699947923072196
0.398984452370970	0.698475211872157
0.398899714983310	0.698362323593364
0.399657258349980	0.699731858438250
0.400769768371673	0.701727010416230
0.401515483143494	0.703078800414157
0.401416080364218	0.702946230325584
0.400553370388049	0.701473048380884
0.399515095767589	0.699692462772422
0.399005726737339	0.698842899225942
0.399379966337945	0.699547877664892
0.400407856961756	0.701403057056068
0.401427024238606	0.703243889306960
0.401781249579164	0.703916654877054
0.401254968963020	0.703042336339166
0.400215992952775	0.701267528299336
0.399371945344228	0.699836242809260
0.399301695560615	0.699766140968959
0.400072048633630	0.701174651985095
0.401193502895711	0.703201192144691
0.401944370394539	0.704576985984529
0.401848642119711	0.704465179321728
0.400991177327094	0.703014958764194
0.399961512696385	0.701262763892081
0.399463497881441	0.700446003346328
0.399849238368996	0.701183698810531
0.400885946744011	0.703066594970741
0.401910082188895	0.704928143881372
0.402266713555620	0.705616928350443
0.401743179395709	0.704759059033763
0.400709894617255	0.703005718848216
0.399875067479088	0.701601940092108
0.399815741466720	0.701562148189341
0.400595683993028	0.702998387100452
0.401723137918347	0.705046042755697
0.402476410384859	0.706436245266239
0.402381708544353	0.706335929864158
0.401526820916356	0.704899305397276
0.400502938650022	0.703165572062418
0.400013139690216	0.702370613993313
0.400406779421853	0.703128431484969
0.401448092769013	0.705024330335829
0.402472228750613	0.706889239447087
0.402825398620228	0.707573516305849
0.402297691854078	0.706707862381804
0.401261969357904	0.704947506014617
0.400426865510819	0.703537967210390
0.400367450146214	0.703489936365941
0.401144325030958	0.704909626051892
0.402263372235495	0.706928008190716
0.403002807853127	0.708275794895216
0.402890981893309	0.708123439757848
0.402018548065208	0.706629952294482
0.400978299883604	0.704837129039040
0.400472511837906	0.703979240011570
0.400847787282962	0.704665268057717
0.401865416473653	0.706475188352084
0.402859304212376	0.708237617126931
0.403176895825396	0.708804987405810
0.402611141717135	0.707812970069183
0.401537474598609	0.705921290614893
0.400665100526321	0.704376487885148
0.400567288534438	0.704186139828499
0.401301680585620	0.705451349931208
0.402372036208625	0.707299494870363
0.403056743785637	0.708461768373383
0.402886574374836	0.708113101642979
0.401955332334485	0.706418306750156
0.400857704987512	0.704422814751462
0.400295465130179	0.703360359206475
0.400612781587730	0.703836027370176
0.401568334303718	0.705425626751389
0.402495129258805	0.706956649429211
0.402742191390474	0.707284793396434
0.402105666906381	0.706051864680110
0.400963878868657	0.703923212334474
0.400026908330553	0.702147477351242
0.399866516634316	0.701730168643973
0.400537672333837	0.702768284765662
0.401542289705831	0.704386562488125
0.402159188906055	0.705317563282770
0.401921792568465	0.704741488458565
0.400927249248838	0.702829632931846
0.399772295399404	0.700631624095102
0.399158324045191	0.699381107237832
0.399427164355274	0.699679616607255
0.400334956279487	0.701099030776330
0.401213848742180	0.702465843448494
0.401414450893097	0.702639013777119
0.400736064098593	0.701266334441855
0.399559813351669	0.699018480149108
0.398596523101857	0.697145755151017
0.398416281029267	0.696651035911739
0.399071189496271	0.697626542986230
0.400061099829281	0.699193596056442
0.400665017148464	0.700085238441183
0.400418733277548	0.699485938926392
0.399422419806411	0.697572354164213
0.398274506013455	0.695397079063622
0.397675623415844	0.694192356007777
0.397964865512903	0.694554790633061
0.398895429150704	0.696050914222597
0.399798196534796	0.697504767848843
0.400024940566229	0.697777080340203
0.399377682583519	0.696520101726675
0.398239900955948	0.694408274071114
0.397322709759857	0.692691998421932
0.397194076009344	0.692369971705064
0.397902805938486	0.693528133281310
0.398946279253759	0.695282940091598
0.399603296301739	0.696366531157503
0.399411642236819	0.695966313027466
0.398474147452822	0.694263032337937
0.397390585551074	0.692311050046452
0.396860503413058	0.691340096102219
0.397219971684549	0.691940852750396
0.398218998942257	0.693673638348868
0.399186996476925	0.695359306181708
0.399476731428276	0.695859741626356
0.398892803893381	0.694831151755080
0.397820931202936	0.692951357258964
0.396972434347402	0.691470588233369
0.396913117018628	0.691383230136991
0.397688493056336	0.692768955695595
0.398793520618424	0.694739518984879
0.399506884881583	0.696026446283824
0.399368483791978	0.695820485880567
0.398483948889416	0.694306975738619
0.397454562620759	0.692542637038269
0.396978978741453	0.691755378975742
0.397390469261345	0.692530755447783
0.398436112690722	0.694423767954695
0.399444135869451	0.696253064110110
0.399768604129951	0.696882729888611
0.399217007148714	0.695974011306290
0.398177613445261	0.694209212280456
0.397362265798373	0.692839515773961
0.397334927103717	0.692856141930045
0.398138152311979	0.694333665506107
0.399264819843936	0.696380318612499
0.399993840831771	0.697728186669791
0.399867555059847	0.697572497302786
0.398994703969519	0.696104263683676
0.397978365855817	0.694383590121029
0.397516571097143	0.693637530553870
0.397940051416903	0.694447424952936
0.398993204059039	0.696363821031885
0.400003305960223	0.698203961110910
0.400325931645178	0.698834850510527
0.399771639114534	0.697923393914792
0.398731391427778	0.696156892076362
0.397917665024397	0.694787894155084
0.397892670376886	0.694804781537300
0.398696074981242	0.696277282337963
0.399818732810642	0.698310284709260
0.400539814786920	0.699636529582316
0.400404107387298	0.699455726915792
0.399523433627191	0.697964469272970
0.398502608763430	0.696226056435697
0.398038958943030	0.695466425446603
0.398460582673218	0.696262387213430
0.399509096721902	0.698159680613345
0.400510721758213	0.699973749824334
0.400822422374783	0.700574082869108
0.400257687825293	0.699632757557707
0.399210020854543	0.697841541444834
0.398392365865651	0.696453791738679
0.398365015047888	0.696454487753670
0.399164591322959	0.697907962257087
0.400279778607926	0.699915234241274
0.400989869821583	0.701209195827380
0.400841961889185	0.700993548528580
0.399950821387006	0.699469984673045
0.398922863869248	0.697704539688326
0.398454584605286	0.696921611786112
0.398871341805866	0.697693118064873
0.399911889291332	0.699559692012592
0.400901331600202	0.701334749537392
0.401197979074483	0.701890086582774
0.400618216499687	0.700902823356624
0.399558057298241	0.699069104724417
0.398730896157780	0.697643055871469
0.398695108721122	0.697606277256007
0.399484300565258	0.699017802722177
0.400585038035419	0.700974950160191
0.401276806962606	0.702210989043304
0.401109094607010	0.701933878192807
0.400199693433850	0.700350701361432
0.399156703967332	0.698530544524859
0.398675883090467	0.697696612086627
0.399079955426169	0.698416310768498
0.400104934758283	0.700225590869376
0.401074943699518	0.701936289104435
0.401349774073717	0.702422964777246
0.400748834056067	0.701368222381526
0.399670763656956	0.699473001892737
0.398829514506970	0.697992591597709
0.398781649549652	0.697905593642164
0.399557862771299	0.699266114114799
0.400642709326352	0.701168126434931
0.401315967451318	0.702345603618402
0.401129597569534	0.702011037914938
0.400204477722996	0.700377117011899
0.399150430264049	0.698516125034772
0.398662493921144	0.697650164669140
0.399060770760631	0.698342180739187
0.400078539661177	0.700123450239541
0.401038937237622	0.701804195767732
0.401303215647841	0.702261646388259
0.400693760994791	0.701183726239031
0.399611768422100	0.699275932504251
0.398771654321377	0.697794415769191
0.398728065160687	0.697714433670162
0.399508675458557	0.699084787906882
0.400595918756938	0.700995705184517
0.401269748098859	0.702181428434629
0.401084465423553	0.701858508863960
0.400163885070022	0.700244719309169
0.399119387437255	0.698414987458198
0.398645123709187	0.697589742667920
0.399058408335384	0.698326899941012
0.400089630167802	0.700152511881670
0.401060793432010	0.701874653895110
0.401334466961653	0.702372702463876
0.400735868263604	0.701339383101229
0.399668597918653	0.699484238531111
0.398847390541393	0.698063790601174
0.398824842601837	0.698049502070103
0.399625496508745	0.699484476845440
0.400729574015004	0.701454863468297
0.401417130334392	0.702694898536324
0.401244746363179	0.702424959623864
0.400339115783569	0.700867709163592
0.399313127634438	0.699100564179447
0.398860011091623	0.698342181305998
0.399294281607436	0.699145415596625
0.400343453248796	0.701031140364269
0.401328436212958	0.702805397348548
0.401613169024876	0.703349876508696
0.401025760065524	0.702362307533284
0.399972278259466	0.700556511203197
0.399167846308897	0.699189647014779
0.399163094477770	0.699229693022456
0.399979535716634	0.700714415373424
0.401095300160781	0.702726289148690
0.401790675106686	0.703999977285750
0.401624649864705	0.703760123265684
0.400726919417164	0.702234709842518
0.399711995442756	0.700504061122135
0.399272296333827	0.699785471506343
0.399719653122635	0.700627146740116
0.400778824784223	0.702545191438795
0.401769747299814	0.704344012251231
0.402057839182525	0.704907979200125
0.401474191448174	0.703940142056088
0.400427411102100	0.702158856157085
0.399633060037060	0.700822119381278
0.399639841940211	0.700894580623056
0.400466273902570	0.702408786523563
0.401588421511809	0.704443617488360
0.402286818095742	0.705734189603786
0.402122853546082	0.705509371355654
0.401229189350874	0.704002348006075
0.400221899770820	0.702296159335427
0.399792514672781	0.701606486593271
0.400250093970091	0.702476592307483
0.401316550429936	0.704417485071904
0.402310748227762	0.706231574081181
0.402599475255734	0.706805502881281
0.402016675722532	0.705847183111907
0.400973346226170	0.704078997456732
0.400185326983602	0.702759241028529
0.400199232242282	0.702848680323298
0.401030426937450	0.704374096005737
0.402152764874648	0.706410242461199
0.402846883497458	0.707692170216250
0.402676430706453	0.707452460343591
0.401776888566309	0.705928993919709
0.400765748557115	0.704207036473516
0.400333516718528	0.703500203697522
0.400786366897341	0.704346422039722
0.401843276798386	0.706251284578293
0.402821974806898	0.708014958278056
0.403090573007893	0.708526182692479
0.402485836711797	0.707497613935397
0.401421132629135	0.705655606428764
0.400612578423064	0.704258771343900
0.400604725908419	0.704264104024831
0.401409849803850	0.705692836420960
0.402499689593058	0.707615921920958
0.403155113818306	0.708768767935267
0.402942176351010	0.708388172649887
0.401999343217890	0.706717288953608
0.400945702717349	0.704844255611337
0.400470938969193	0.703981350558853
0.400878570621221	0.704661981570863
0.401884902045494	0.706387233674750
0.402806813235837	0.707956016640754
0.403014043429260	0.708260207067343
0.402346487803069	0.707018281234497
0.401220193237124	0.704961663150351
0.400351868195362	0.703350398694233
0.400284324082781	0.703138855799009
0.401027079342668	0.704343886874592
0.402050101964487	0.706033828058939
0.402634833925704	0.706945619835570
0.402350065290161	0.706321420012602
0.401337555852180	0.704410741850367
0.400218278513752	0.702305623537133
0.399681365299982	0.701217970737513
0.400027936516537	0.701677580838330
0.400971867737897	0.703181878015500
0.401829416776008	0.704529285687445
0.401972147462819	0.704615489273354
0.401243243927603	0.703165337121315
0.400061550082688	0.700915744571351
0.399144442952889	0.699128486290688
0.399033039110134	0.698755478919962
0.399734119336614	0.699809260768586
0.400715871137188	0.701355503043929
0.401260266762258	0.702132506254363
0.400938746729567	0.701387474552600
0.399896231580484	0.699375820329094
0.398755400830938	0.697192877217951
0.398204619689908	0.696049448157806
0.398542368042549	0.696470882075622
0.399479828427581	0.697950008703428
0.400332348765056	0.699283737202488
0.400473000664636	0.699370433723065
0.399747906568063	0.697940086637532
0.398578323978764	0.695733773373187
0.397681890176901	0.694013590246090
0.397597605334802	0.693727543660936
0.398329087462546	0.694882370134630
0.399342318557912	0.696539572089090
0.399919373675006	0.697437291943643
0.399633909226239	0.696826246119870
0.398633563592878	0.694966200384504
0.397542277041846	0.692954242330466
0.397047210039628	0.691998560470496
0.397443783626526	0.692618599904748
0.398440095289982	0.694301215023427
0.399350217370399	0.695840499873855
0.399548385019856	0.696136277330099
0.398883331782967	0.694922525839940
0.397778419392799	0.692943415028289
0.396951261104894	0.691460389820768
0.396938491874773	0.691416692003670
0.397740361573758	0.692812537622171
0.398820486207661	0.694704682277121
0.399460922867624	0.695830665652946
0.399237455157977	0.695444392936583
0.398300378039435	0.693809773371234
0.397274860405145	0.692025555151871
0.396846861865746	0.691297346982892
0.397308791777202	0.692138864233342
0.398365755380224	0.694031301839226
0.399330683102139	0.695766385588346
0.399579138496337	0.696245952946875
0.398962653004843	0.695208621594009
0.397906897317188	0.693402382846612
0.397129685763376	0.692088840037249
0.397165539205424	0.692207365681412
0.398011619892625	0.693752637172670
0.399129484735501	0.695777721028577
0.399801496772963	0.697020665933218
0.399605896169990	0.696739705660265
0.398695961107491	0.695204040774255
0.397698411500903	0.693515227584742
0.397298328285233	0.692877443604299
0.397785435890682	0.693799827075310
0.398862178958656	0.695759065232770
0.399840676145497	0.697545650095095
0.400098137242249	0.698064527056195
0.399489187227740	0.697059983230174
0.398442075039356	0.695284787170944
0.397675061778332	0.694001582516879
0.397720782714873	0.694146688622667
0.398573528318308	0.695709999596556
0.399692998155255	0.697741582540310
0.400362041506536	0.698980604224021
0.400161504783356	0.698690138013392
0.399247763054532	0.697145078323990
0.398249166486113	0.695450086051376
0.397849969508216	0.694808111070795
0.398337245091329	0.695723840493950
0.399410796078113	0.697669510559623
0.400381930970206	0.699434364138435
0.400629483425334	0.699926357208665
0.400011119789630	0.698895259282236
0.398957585233173	0.697098342196858
0.398187482579715	0.695798944195558
0.398231443774145	0.695929935696762
0.399080765416328	0.697476000036734
0.400193165463435	0.699483753448216
0.400851849042199	0.700693002468402
0.400640126324169	0.700371148535420
0.399717312216455	0.698798235025231
0.398713219730822	0.697081460720238
0.398311108689919	0.696421980427010
0.398795242045373	0.697319483949564
0.399862637355207	0.699241245148496
0.400823663136558	0.700974782279082
0.401058654662922	0.701430615027741
0.400428199518147	0.700363570497464
0.399365421021015	0.698535023689922
0.398589154064096	0.697208645643005
0.398627935558355	0.697313553088007
0.399470001572130	0.698828985006068
0.400571047432254	0.700797946602786
0.401214612880911	0.701960787953576
0.400986462285866	0.701589192350926
0.400048847615821	0.699968347286022
0.399033050316610	0.698208028250655
0.398621356371095	0.697507688567650
0.399095261871027	0.698362180484878
0.400149067002106	0.700234043912454
0.401092288301023	0.701909359413780
0.401306861417088	0.702301537092791
0.400656396005917	0.701170810300246
0.399576493206071	0.699283019298777
0.398786321790814	0.697902546249290
0.398812434123986	0.697955157066148
0.399640129159693	0.699415077977500
0.400723213875998	0.701322156501397
0.401345699504689	0.702417743399749
0.401095933815240	0.701978243370663
0.400139220664876	0.700294394878241
0.399108410436941	0.698478921194023
0.398684907049436	0.697729916237420
0.399147529078460	0.698537716014925
0.400187948020417	0.700360427527526
0.401114911546971	0.701982963432845
0.401312024019353	0.702321844525537
0.400645962535346	0.701142865028845
0.399554826067535	0.699216413838319
0.398758116393588	0.697807603165467
0.398780387539300	0.697838815942800
0.399603980593714	0.699279192566694
0.400680786357401	0.701165308760614
0.401295246566781	0.702239350625729
0.401038230414115	0.701782214747407
0.400078006580591	0.700089890890247
0.399048885051172	0.698277686782862
0.398631264507957	0.697541926680384
0.399101158177701	0.698367991454737
0.400147481018332	0.700209098292687
0.401078081929300	0.701848516126341
0.401278095640166	0.702205373383251
0.400617114496737	0.701050488398820
0.399535569533738	0.699158231895660
0.398753123146460	0.697793864784390
0.398792162277425	0.697875812447273
0.399631913034085	0.699367578997709
0.400722206207332	0.701301948185117
0.401347778926702	0.702421446671556
0.401101888829727	0.702010984992314
0.400155635454697	0.700371340471987
0.399144656900590	0.698619964486943
0.398748226351138	0.697951011516445
0.399239451768964	0.698844566035450
0.400304416252295	0.700748682275706
0.401250016431758	0.702444777034720
0.401462878333327	0.702854430814237
0.400815478192504	0.701753372317773
0.399750554166709	0.699919880276087
0.398987915870892	0.698619339415546
0.399047789457004	0.698766255568824
0.399906317672630	0.700318606606568
0.401011327361262	0.702305563695306
0.401647924301154	0.703470228576716
0.401411835664091	0.703101797107689
0.400477074814619	0.701506129798291
0.399480693415435	0.699803140187862
0.399100932936787	0.699185162002873
0.399608104432707	0.700127370919520
0.400685583476643	0.702073083786892
0.401639449247245	0.703802315929870
0.401857954402693	0.704239554841292
0.401216585855119	0.703165879448170
0.400160503697412	0.701363891876410
0.399409770827538	0.700099493906263
0.399482556413114	0.700283651054880
0.400352025634955	0.701869184497734
0.401464107184634	0.703882006216112
0.402104373281264	0.705066113440472
0.401871100665588	0.704715255107554
0.400941272827131	0.703140577281652
0.399953388482816	0.701464592366757
0.399584674582714	0.700877894257671
0.400102653372623	0.701850786451196
0.401187994596459	0.703821844664052
0.402145951370346	0.705569631388986
0.402366376022416	0.706021428032550
0.401727713981105	0.704963477376313
0.400677468978746	0.703182444520449
0.399935858690980	0.701944425553273
0.400018885943665	0.702156478773423
0.400896625377019	0.703765872432106
0.402012992053417	0.705794838208928
0.402653901833875	0.706987817176390
0.402420044405648	0.706642620886029
0.401491220231482	0.705075150338177
0.400507209561706	0.703409957006785
0.400144056575749	0.702835326791123
0.400666333908277	0.703816136380743
0.401751857592332	0.705785693009173
0.402704918404320	0.707520608119021
0.402916837989213	0.707950482134429
0.402268891138177	0.706866265937340
0.401210798166815	0.705058256593490
0.400462813995813	0.703792355164032
0.400538677580390	0.703971387161471
0.401405303456627	0.705536823527237
0.402504552903189	0.707507058093383
0.403122669808189	0.708626899285574
0.402862758805229	0.708198216060023
0.401907453439677	0.706541726238573
0.400897848684210	0.704784156097574
0.400508864260813	0.704111708317556
0.401002214811549	0.704984161541982
0.402052990685403	0.706829992766073
0.402964680735351	0.708424402566573
0.403130260064887	0.708699936270444
0.402434032741042	0.707452948930526
0.401328148792311	0.705478129292135
0.400533130495001	0.704042010810951
0.400560706657052	0.704044089963782
0.401374913014280	0.705421023940313
0.402415863311104	0.707188423534254
0.402970451694146	0.708092570511013
0.402644524982949	0.707440524437689
0.401623874588510	0.705558962290259
0.400551231658595	0.703577929845821
0.400100713920482	0.702682695833802
0.400531506145713	0.703329097289070
0.401516306575270	0.704941938553055
0.402358134126562	0.706296149996916
0.402451936416865	0.706328319983103
0.401685342660452	0.704841239750975
0.400513200834380	0.702634942382814
0.399656543441738	0.700977465817917
0.399625312195382	0.700765773833656
0.400380870568046	0.701932431650196
0.401361771944313	0.703490905010903
0.401855719845540	0.704189484118468
0.401471424127301	0.703340830071180
0.400397910441702	0.701277851994864
0.399279578857431	0.699134049433783
0.398789740708072	0.698093762385011
0.399185016541248	0.698608773961838
0.400135650898731	0.700099990268511
0.400944100187646	0.701341726137728
0.401007153295449	0.701274135104283
0.400215588411041	0.699705824547043
0.399026730177196	0.697441411299820
0.398161861685760	0.695749551097378
0.398128849739933	0.695523683254906
0.398886077595429	0.696691201993957
0.399870212136012	0.698262269333472
0.400369418073992	0.698985943475387
0.399994892709059	0.698179160500075
0.398938491516818	0.696179651992427
0.397845855757717	0.694122893909737
0.397389050291476	0.693190777818060
0.397821690425146	0.693829497188374
0.398811131700524	0.695454526238527
0.399658838310429	0.696838038953541
0.399763011918801	0.696922235852666
0.399017149087528	0.695520029997067
0.397880620774866	0.693439129722474
0.397074539406971	0.691947356218058
0.397104296495295	0.691933238522105
0.397924924694039	0.693317702229228
0.398970866534461	0.695106405914426
0.399530438839295	0.696048072217112
0.399217040296460	0.695462899104516
0.398225090900112	0.693692517913363
0.397201232721492	0.691873559420101
0.396816077816305	0.691184765152561
0.397320073069352	0.692066175554537
0.398377568874823	0.693927416262075
0.399288964812968	0.695538245650095
0.399453838778973	0.695842764904870
0.398768397886290	0.694658162134852
0.397694078586691	0.692795318348524
0.396951873327079	0.691521419645648
0.397044787739845	0.691720413188738
0.397924636407457	0.693307218424715
0.399023810847099	0.695283579872961
0.399630985498734	0.696398582119486
0.399361987519135	0.695976467978965
0.398414043031515	0.694363620125929
0.397435050569372	0.692698738716829
0.397094443676339	0.692158395777442
0.397639798488917	0.693177528247519
0.398732781063239	0.695161025754057
0.399673063183087	0.696877388526711
0.399861940403245	0.697273795060105
0.399198666188828	0.696172880641831
0.398147068225466	0.694389853163220
0.397428336870057	0.693192398304458
0.397543407241866	0.693461000523589
0.398441191620351	0.695105676843114
0.399552343360147	0.697125335353620
0.400166195283214	0.698270453515323
0.399901281066746	0.697870280427442
0.398957881714471	0.696276826770642
0.397985372101179	0.694631651479613
0.397652204203665	0.694109866866413
0.398203263894919	0.695141945641041
0.399297698780204	0.697128611684122
0.400234599487574	0.698837598908468
0.400417098071008	0.699219560749279
0.399747578314316	0.698102870480961
0.398692307246732	0.696307245451695
0.397972691256414	0.695100956407338
0.398087592222137	0.695361030879812
0.398983003388613	0.696992523346576
0.400087809886517	0.698991382843956
0.400691954406927	0.700109288178222
0.400416603625122	0.699680225739995
0.399464992345578	0.698061486564041
0.398487847519414	0.696397073298032
0.398152501829262	0.695860176940033
0.398701009740568	0.696876319456735
0.399789861039909	0.698841560770948
0.400717426033068	0.700522359959317
0.400888528558907	0.700872320643008
0.400208527900625	0.699725009230330
0.399145966706897	0.697904093752371
0.398422302448959	0.696677874765867
0.398534168138134	0.696919393439637
0.399424499509548	0.698528255392375
0.400520293400100	0.700497012894544
0.401111995774563	0.701578151297813
0.400823306448789	0.701110033196568
0.399860317815831	0.699454899453015
0.398875019790432	0.697758904435680
0.398533552173478	0.697193080682365
0.399075088340486	0.698177832931618
0.400153437674895	0.700104467597310
0.401066250814126	0.701738149750312
0.401220059008234	0.702035469687470
0.400523220371878	0.700835265719597
0.399446582532922	0.698965273650897
0.398711694082359	0.697693986043805
0.398813017260318	0.697890676231376
0.399690511025793	0.699449781796613
0.400769385259645	0.701360795402559
0.401340702957950	0.702377385397995
0.401030813351217	0.701842686032855
0.400048779074442	0.700124288588213
0.399047962588616	0.698370902634766
0.398693423000396	0.697751815281257
0.399221573195616	0.698682743455261
0.400283672005354	0.700550683952635
0.401176783552326	0.702119952396465
0.401309272911521	0.702350550057500
0.400592607996324	0.701086972732547
0.399500034156366	0.699161362999271
0.398753269498134	0.697842701879578
0.398844676469361	0.697996758419713
0.399711305260890	0.699513038358731
0.400776642007378	0.701378178406945
0.401332417523686	0.702347185983657
0.401007659835788	0.701768058398703
0.400014404917192	0.700013754583242
0.399007366699713	0.698235485527797
0.398650485844952	0.697600681123269
0.399177368175183	0.698520214706670
0.400236669658933	0.700376579702313
0.401124806354371	0.701933005360116
0.401251898955996	0.702152612108676
0.400532424387852	0.700885197762403
0.399441902454652	0.698966894710309
0.398702081835127	0.697666708202917
0.398803080405105	0.697846411327056
0.399678896275647	0.699390074458761
0.400751150948923	0.701280967618113
0.401312099671464	0.702274913774796
0.400993296982320	0.701724228960932
0.400009588581967	0.700006673599066
0.399016869290857	0.698275383082655
0.398677793267154	0.697695362183421
0.399223003301300	0.698672101900383
0.400298413124594	0.700583093726184
0.401199665569076	0.702190020950369
0.401338519418721	0.702458693760310
0.400632345322947	0.701243805871163
0.399558824831081	0.699385099537670
0.398839633746784	0.698151264245346
0.398962560560884	0.698399795263663
0.399858491610851	0.700009116656826
0.400947149007739	0.701958992408496
0.401521296253511	0.703005982774569
0.401215008732482	0.702506691402306
0.400245942363734	0.700843688496422
0.399271181720436	0.699172084937146
0.398952118818398	0.698654565907318
0.399516480267504	0.699691411101355
0.400607508672906	0.701655348139594
0.401520163793522	0.703306808344658
0.401667942232146	0.703614622724882
0.400971209394575	0.702438731978217
0.399909908370462	0.700622852120583
0.399205744505992	0.699435737407113
0.399344288542574	0.699731010934318
0.400253439700477	0.701381884639366
0.401351155655789	0.703365071069872
0.401930844734173	0.704438324127832
0.401629231184071	0.703962971951490
0.400666894447481	0.702326797751118
0.399702208113816	0.700687255414022
0.399395393141576	0.700205049561510
0.399971348883500	0.701275566781566
0.401070734683447	0.703267067439263
0.401987908491474	0.704938993753180
0.402138169972106	0.705263407966036
0.401444920655046	0.704105640110347
0.400390380905876	0.702313449717510
0.399696280684315	0.701155660634517
0.399845955395959	0.701481977084106
0.400764292399310	0.703160310065807
0.401867452290992	0.705164188634442
0.402449441250205	0.706252374332167
0.402149563463560	0.705790667436979
0.401191227614889	0.704171740927376
0.400233980294521	0.702555005780121
0.399936742586831	0.702098755388637
0.400521454132462	0.703193026520549
0.401626059216472	0.705201140004141
0.402544180518035	0.706881060255196
0.402692779442697	0.707207568245647
0.401998139807355	0.706050842571454
0.400944594256398	0.704262123538182
0.400253729137065	0.703109737867658
0.400406483831509	0.703438923285138
0.401324588705233	0.705111779596569
0.402422279218836	0.707098186310484
0.402994043989850	0.708157487064636
0.402681658448653	0.707659562816046
0.401711256544653	0.706001619228962
0.400743463273821	0.704344713459924
0.400435824212680	0.703844483111370
0.401007272011986	0.704885456448752
0.402093021087030	0.706825951854808
0.402985973597906	0.708422485972939
0.403104789853308	0.708652670743419
0.402378689548601	0.707391718644490
0.401294187290514	0.705494609465563
0.400572817452095	0.704229515611221
0.400693245309331	0.704437649733884
0.401574201656121	0.705975849032207
0.402628188163667	0.707810995271858
0.403150393380069	0.708703753837108
0.402785298150439	0.708028895012274
0.401762006824036	0.706189022039638
0.400742479704598	0.704347757624095
0.400383161128653	0.703659063631643
0.400900273713478	0.704503005875376
0.401926621655578	0.706234007920624
0.402754721968169	0.707608290821352
0.402805273837194	0.707607469621917
0.402010767617939	0.706112960259323
0.400860225503000	0.703984636574925
0.400075448796597	0.702491654898248
0.400133145987317	0.702472328069678
0.400949366331552	0.703779341319369
0.401935192281358	0.705377661702332
0.402386813420749	0.706030308665974
0.401951692382979	0.705117898259109
0.400862148483978	0.703049294296035
0.399781689981764	0.700991449540929
0.399365845812874	0.700097320642177
0.399828292868737	0.700743092651412
0.400799568309965	0.702279784226666
0.401571919961983	0.703463705051024
0.401568164865819	0.703280731976750
0.400724098082557	0.701618601493656
0.399531236835847	0.699342052507088
0.398711595350952	0.697721058308638
0.398739838067689	0.697590741087625
0.399529217904070	0.698799229730235
0.400489255304321	0.700309058803147
0.400916964148102	0.700884961694046
0.400462571214079	0.699912627677583
0.399361349710915	0.697806274479027
0.398278055940794	0.695735155521245
0.397866974608849	0.694850091365247
0.398338889236203	0.695522176071519
0.399321708723822	0.697097747798081
0.400107035596213	0.698331866804881
0.400119408710610	0.698213267952718
0.399297508525993	0.696634538732113
0.398134907482520	0.694463758783332
0.397353381735501	0.692970161962835
0.397425101589443	0.692984119012166
0.398260083681440	0.694347660010396
0.399265859359133	0.696019374154680
0.399739849376364	0.696764226286509
0.399334632331927	0.695971525059535
0.398288027520935	0.694059421973281
0.397265642079878	0.692198101195890
0.396920140759448	0.691534952171624
0.397459070031741	0.692434781531747
0.398507404065025	0.694238162889732
0.399355828934290	0.695697936388211
0.399430363408147	0.695804830621967
0.398672355837463	0.694455520928926
0.397577241577408	0.692520769718481
0.396866398533021	0.691268532850498
0.397009384034231	0.691524028117649
0.397912906901066	0.693122933659315
0.398982484219926	0.695019787103320
0.399515957695586	0.695979812523173
0.399168302303569	0.695396083272281
0.398179953486994	0.693690937112513
0.397217466282391	0.692035849044416
0.396932015714754	0.691575253158021
0.397528080312607	0.692668266873438
0.398627907760138	0.694650416661712
0.399521508320629	0.696273143089115
0.399636642840658	0.696530068515738
0.398917601780723	0.695322914098928
0.397861966034231	0.693526129355312
0.397191008954228	0.692407442159758
0.397371984873142	0.692788016642069
0.398308623267799	0.694498325812665
0.399404769585121	0.696490036730044
0.399959033086230	0.697529824349575
0.399629124342061	0.697015703443645
0.398658419636408	0.695375341820717
0.397714731850928	0.693782610514181
0.397448046356748	0.693380058433527
0.398060068803493	0.694522152774362
0.399170610318701	0.696540376064371
0.400069283466201	0.698185720977998
0.400185847169451	0.698455582141379
0.399467759448111	0.697257513906715
0.398414939478805	0.695470342729254
0.397748720668043	0.694362166683156
0.397934198278480	0.694750614278288
0.398872250503559	0.696461398665977
0.399965161903748	0.698443685742506
0.400512395793123	0.699465882635822
0.400174452700653	0.698931125341609
0.399197668563572	0.697272485006683
0.398251101039630	0.695666203383504
0.397983509757872	0.695252837774545
0.398593777279483	0.696382035589074
0.399699217752903	0.698381012307157
0.400588972750139	0.700000034463210
0.400694706788389	0.700239927819491
0.399966929229625	0.699013671558419
0.398907759179761	0.697204000125898
0.398238437719248	0.696078870529429
0.398421745383956	0.696451845084702
0.399355557951178	0.698143345088117
0.400440453731336	0.700099508220675
0.400976605918596	0.701089947752551
0.400627156188389	0.700522389678916
0.399641244965675	0.698834772938998
0.398689018150085	0.697205182597317
0.398417861491563	0.696771685711677
0.399023704095520	0.697878659702030
0.400121254498165	0.699848661080666
0.400999093388217	0.701430893880713
0.401090712707669	0.701629324027180
0.400349601128270	0.700362101905427
0.399280012001359	0.698515655415846
0.398603041131000	0.697357637232329
0.398779122797932	0.697697447281599
0.399703125696108	0.699350195547236
0.400773942709718	0.701259046046144
0.401292495839949	0.702194933032086
0.400924616155845	0.701570331063154
0.399922301358044	0.699828239249761
0.398956844747737	0.698148813524601
0.398674330266678	0.697667902750204
0.399267824654191	0.698724939164850
0.400349541654972	0.700638196403036
0.401207625456797	0.702156229577880
0.401277523308796	0.702286575040445
0.400515826121997	0.700952983211164
0.399429037012055	0.699045995184709
0.398738218536011	0.697833373459733
0.398901573703232	0.698120772100488
0.399811085503847	0.699718411391779
0.400864086090537	0.701566899734393
0.401362365512556	0.702438888329288
0.400974548213338	0.701751954010490
0.399955572448689	0.699954455245488
0.398977943016699	0.698228863700228
0.398686493515653	0.697709009928655
0.399271473591149	0.698729545345287
0.400342642639373	0.700604590396708
0.401187738773525	0.702082135995950
0.401244176215771	0.702173312483348
0.400471634207269	0.700807420303586
0.399378825607486	0.698878989163550
0.398686719670938	0.697655703244027
0.398851216832463	0.697939235197737
0.399761337769731	0.699534644174736
0.400812771551500	0.701379676291680
0.401308082181080	0.702248349010809
0.400918574709741	0.701562936621516
0.399901994004962	0.699776695940418
0.398931905697106	0.698073907605705
0.398651735089620	0.697585850751695
0.399248758711523	0.698641855704643
0.400330131526345	0.700551352490183
0.401183038744866	0.702061232136389
0.401246711596169	0.702185676881786
0.400483759899413	0.700858983826410
0.399404942125555	0.698979112381679
0.398730971459872	0.697813120774295
0.398915294507875	0.698158184794062
0.399843836866066	0.699813734368609
0.400910530507677	0.701714235804580
0.401418612537880	0.702634698509519
0.401041974090266	0.702001753333505
0.400041075729986	0.700273245124032
0.399090460535702	0.698634992246224
0.398832078218181	0.698215506549350
0.399450188977304	0.699338651753654
0.400549326698896	0.701309097189893
0.401416129133321	0.702872631246141
0.401491663625432	0.703046537788523
0.400741496476959	0.701770200094297
0.399678463469758	0.699945133848312
0.399023064378471	0.698837942670819
0.399226353004518	0.699241532945578
0.400171243369853	0.700949994162456
0.401250013686398	0.702894855952136
0.401766688795740	0.703852499579066
0.401397862132734	0.703254309247353
0.400406822243448	0.701563118793813
0.399469199211081	0.699966688389016
0.399225579939087	0.699591176980877
0.399857329848278	0.700755412745706
0.400966492260194	0.702759749022643
0.401839290410564	0.704349315053631
0.401918752947687	0.704544917396049
0.401173511752568	0.703291406291119
0.400118570776063	0.701494187386640
0.399474293328359	0.700419701045444
0.399689410316925	0.700856842727206
0.400643890963076	0.702594591612875
0.401728420825997	0.704561735951447
0.402247859887627	0.705536173493007
0.401881528727169	0.704954118856156
0.400895541851031	0.703283395848276
0.399966590212702	0.701713635639892
0.399733855443412	0.701368515242877
0.400375757008354	0.702561653719018
0.401491790301319	0.704588875472740
0.402367696525307	0.706194392456263
0.402448380557546	0.706402219122871
0.401705431878107	0.705162293787711
0.400655892700759	0.703383473141314
0.400019845575593	0.702331551286224
0.400243549942565	0.702790906474733
0.401203884493115	0.704544893855460
0.402289799905636	0.706519043862045
0.402806847667362	0.707492246747176
0.402436924651566	0.706905009760408
0.401448811875416	0.705229596745466
0.400520098594119	0.703656961579570
0.400288405746008	0.703307774915882
0.400929068382168	0.704489967554744
0.402038916883472	0.706494412919722
0.402903112312782	0.708064040453613
0.402968350497947	0.708225757055979
0.402209101636847	0.706934319164566
0.401144379252068	0.705101815989076
0.400493935791579	0.703993244700644
0.400701537332977	0.704388403363799
0.401640984009972	0.706065061235100
0.402699537008610	0.707945631107483
0.403183511735491	0.708810227950230
0.402777473156545	0.708103963214282
0.401752976425754	0.706303925696132
0.400788635521187	0.704602855182369
0.400520663322683	0.704118969694471
0.401121495965958	0.705155166385019
0.402185518159308	0.706998123063018
0.402997557966357	0.708390329798099
0.403006367159979	0.708362496500219
0.402189571165474	0.706875157738886
0.401068436384041	0.704844636617410
0.400362677434398	0.703536178350238
0.400513875774064	0.703726094990909
0.401393080563337	0.705187712595677
0.402386205510963	0.706841504635462
0.402800676192991	0.707470001461611
0.402324064919770	0.706524096466110
0.401231026335857	0.704486850447361
0.400201510492557	0.702553899587976
0.399870624189813	0.701842085665933
0.400408201432784	0.702650316211242
0.401406471708528	0.704262077596530
0.402150206447622	0.705420365930267
0.402090464440191	0.705160556028883
0.401208242988049	0.703449718183442
0.400027240820843	0.701209053409533
0.399267280755783	0.699704588075024
0.399367878579582	0.699709578050652
0.400197427743016	0.700993235671588
0.401140563120082	0.702474316552930
0.401505854223014	0.702937863427650
0.400983870766564	0.701840507280523
0.399852309174653	0.699671087319225
0.398792353204560	0.697627798628517
0.398437864737865	0.696825640227575
0.398955908360644	0.697558949702473
0.399936365565639	0.699107334805768
0.400663729488953	0.700213499987761
0.400591108744279	0.699916567996606
0.399702575392654	0.698189104344822
0.398523925521773	0.695956031571974
0.397774725982862	0.694482904629604
0.397892044726872	0.694538599060759
0.398741227491417	0.695886837431426
0.399705230192543	0.697443238238524
0.400093354296015	0.697993893499531
0.399598738585939	0.696999663144582
0.398501676622347	0.694953617021304
0.397484131846864	0.693054940863372
0.397178269466300	0.692415229158892
0.397747946235582	0.693322720206308
0.398780276186319	0.695051662450149
0.399559072441467	0.696343040773172
0.399539104596970	0.696238348173970
0.398707140441228	0.694714318277894
0.397590707112675	0.692698329144513
0.396908770906576	0.691454280242614
0.397095640062660	0.691745588582399
0.398013340883618	0.693329531808235
0.399042919255760	0.695117763668352
0.399494212749292	0.695896718861656
0.399062761976507	0.695130891528435
0.398031316504469	0.693317096771876
0.397082508420361	0.691655143191773
0.396846733598681	0.691252985774439
0.397484614040802	0.692392674310783
0.398580516683957	0.694343156590860
0.399417636793765	0.695843893569636
0.399452499528211	0.695939062849166
0.398674687704009	0.694609983316315
0.397613601706318	0.692787002371514
0.396987776538052	0.691732978414054
0.397228963192140	0.692206591831970
0.398196106786101	0.693959505005050
0.399268612931628	0.695900332148729
0.399757146510980	0.696816848765650
0.399359951594749	0.696178229604299
0.398362539147609	0.694486112542994
0.397448519136073	0.692942032248982
0.397246835863587	0.692651435657046
0.397915206931153	0.693891345205058
0.399035593751661	0.695926590817902
0.399890918501849	0.697496294295542
0.399939798437927	0.697648479104644
0.399174950414126	0.696370165613638
0.398127946598008	0.694595731636566
0.397517172270575	0.693588001982176
0.397772091695022	0.694101880437270
0.398748831073044	0.695884327751930
0.399825406157935	0.697841776091129
0.400313538792285	0.698764124453158
0.399914375951113	0.698125917032771
0.398916354603113	0.696434199343420
0.398004194848808	0.694892715924090
0.397805496741835	0.694604800523066
0.398475162955922	0.695842766209195
0.399592822911017	0.697867569620740
0.400441178790650	0.699418157309876
0.400480964922137	0.699546469458516
0.399708023673613	0.698245197864349
0.398656058065626	0.696452623762622
0.398043237913864	0.695431330243442
0.398296660173595	0.695932175605703
0.399269543530173	0.697697104469450
0.400338417569607	0.699630010846531
0.400815951973259	0.700522514256074
0.400406068923431	0.699854072259808
0.399399983967562	0.698136630840299
0.398483365915326	0.696575600363590
0.398282305505163	0.696271642857791
0.398948731466195	0.697491810199919
0.400059792413449	0.699492652043047
0.400897829335605	0.701012423547740
0.400925553901085	0.701106476063032
0.400141791547089	0.699772674131757
0.399082232880404	0.697952717299727
0.398464696144994	0.696908492530776
0.398713791985358	0.697386409188502
0.399679736029622	0.699123056880675
0.400737499088626	0.701019518270131
0.401200642709535	0.701868916470099
0.400775817667315	0.701155450203117
0.399756977862213	0.699395834037225
0.398830710589524	0.697797059354541
0.398621585006985	0.697457092683081
0.399278568614191	0.698637773858286
0.400376368193004	0.700591369017463
0.401197023134978	0.702055628573476
0.401205293402893	0.702089546947349
0.400403062440727	0.700696423674370
0.399328086044930	0.698821664608009
0.398697915918451	0.697726780148733
0.398934775591934	0.698154090901910
0.399885994212232	0.699835234899239
0.400925114211824	0.701668920728632
0.401366724069905	0.702450226836278
0.400920332982018	0.701668538532665
0.399882752436879	0.699845765287796
0.398941598342653	0.698190885945323
0.398720025379535	0.697799565497368
0.399364149320859	0.698928819556265
0.400446346998836	0.700827009329288
0.401248463883671	0.702231735388999
0.401237401839687	0.702205946483983
0.400418174268977	0.700758629029462
0.399330651277306	0.698839083552275
0.398692149550989	0.697708576170514
0.398922526957812	0.698105426722788
0.399866241834909	0.699756371845071
0.400895415951909	0.701557753893804
0.401325657012589	0.702306558707929
0.400869301570209	0.701497240579882
0.399825961161356	0.699656711565635
0.398884200209403	0.697995678656921
0.398665664934843	0.697607195429072
0.399313519640444	0.698743108632724
0.400397708465955	0.700647501864087
0.401199773485352	0.702057420726253
0.401188635302760	0.702039320921875
0.400372295764341	0.700607380597253
0.399292581126954	0.698714257907303
0.398666406279908	0.697620412891940
0.398911098183235	0.698059599103711
0.399868087402966	0.699753097657596
0.400907926450531	0.701594345388244
0.401347096615202	0.702381704855532
0.400900613032429	0.701614169818286
0.399870733843844	0.699823127028857
0.398946819100140	0.698220497575791
0.398748863875883	0.697896243225630
0.399416957268252	0.699096613170595
0.400518508988097	0.701061044162738
0.401334674200723	0.702525712566142
0.401336319659915	0.702560310727104
0.400534368676497	0.701183974337871
0.399472543045491	0.699352523605914
0.398867308365567	0.698325468190228
0.399133434887584	0.698831917814827
0.400109326168177	0.700587695888920
0.401163990741219	0.702483402955632
0.401614825544936	0.703318904612380
0.401179574565861	0.702597901309160
0.400163196876103	0.700856453878122
0.399255909019701	0.699307931619604
0.399076129135167	0.699039483188551
0.399760964499018	0.700292091351172
0.400875403057212	0.702300927109642
0.401700338327541	0.703801714018595
0.401708710955440	0.703867811982782
0.400914487945084	0.702523742376087
0.399863401570517	0.700728906382247
0.399271580178738	0.699742277329764
0.399551352834849	0.700288738132976
0.400538217991048	0.702079076221790
0.401599764730886	0.704001472396010
0.402054423644665	0.704857687425919
0.401622769397747	0.704156476218514
0.400612542767250	0.702438865724918
0.399714878602675	0.700919910910767
0.399546667688668	0.700684139772168
0.400242078912982	0.701967424855355
0.401363716421088	0.704000790984404
0.402192238824969	0.705519580507809
0.402202667347955	0.705600828171538
0.401411992952855	0.704274372387361
0.400367912402243	0.702503051039945
0.399786151136711	0.701545093238441
0.400076520533438	0.702120899941049
0.401071532116939	0.703935931185984
0.402137267431734	0.705875620377437
0.402593090208282	0.706743250821444
0.402162286340801	0.706052205261050
0.401155238283516	0.704347996080721
0.400263843954108	0.702846841718859
0.400103306324721	0.702630106774774
0.400804699479124	0.703928010224993
0.401928095158810	0.705966897225926
0.402753773491175	0.707481204393831
0.402758691720625	0.707551119311257
0.401962715524133	0.706211275592445
0.400915354816085	0.704427434896230
0.400331787441305	0.703456597590712
0.400619179684545	0.704014249297259
0.401606953018688	0.705800156607534
0.402659602775640	0.707696710786347
0.403097366207654	0.708508488196454
0.402646193767330	0.707753327609568
0.401619074257935	0.705981112690913
0.400708649682514	0.704409180076206
0.400528441763411	0.704115772756491
0.401206469940922	0.705325600713021
0.402300349462939	0.707260581670041
0.403090088861730	0.708654598616957
0.403054710953944	0.708591429409821
0.402217102012830	0.707111014065439
0.401128746996038	0.705182621448745
0.400504459587516	0.704062687087861
0.400748973120393	0.704462536218981
0.401688863154275	0.706077091260517
0.402687311240391	0.707786635419354
0.403065719504710	0.708398037062926
0.402553003095207	0.707434633095877
0.401465060441849	0.705451749515043
0.400495585028975	0.703668938229704
0.400256734057819	0.703162447943629
0.400873802532644	0.704152639290479
0.401902291277044	0.705858186280872
0.402622282824382	0.707013605849431
0.402515203070816	0.706707431472899
0.401607278982646	0.704986030614500
0.400452270263658	0.702823245176957
0.399764908957982	0.701475956538623
0.399947765982013	0.701652288805005
0.400824831240223	0.703043225823957
0.401758217624169	0.704527781193967
0.402070712053162	0.704915864253374
0.401494378752238	0.703736947086102
0.400348169264326	0.701552309884801
0.399326932879475	0.699584106183999
0.399041533855921	0.698906859645330
0.399614587370981	0.699736741517230
0.400599497907491	0.701289231792082
0.401276407716816	0.702299409337624
0.401129090431437	0.701860353686038
0.400187011310469	0.700024502143747
0.399006056041561	0.697769765914432
0.398300687089507	0.696352836292022
0.398471095245043	0.696477886575797
0.399338443400562	0.697831111903219
0.400263510507978	0.699289308267071
0.400570173746207	0.699664374387786
0.399993317136440	0.698490756841627
0.398854580843135	0.696334424042429
0.397849576866118	0.694418776555762
0.397587466014400	0.693815194901899
0.398187766127112	0.694734203394177
0.399201365713914	0.696386605623531
0.399908043377419	0.697506538579678
0.399793488680244	0.697190100728979
0.398889962639498	0.695494251239185
0.397755027729584	0.693399415415386
0.397102431137287	0.692160556362166
0.397329553269176	0.692476402896591
0.398254323376447	0.694026932763646
0.399235804795249	0.695685368923540
0.399598604044587	0.696264315571831
0.399080079954005	0.695301978202000
0.398004231977611	0.693367870615758
0.397067127438335	0.691685585822906
0.396875948610598	0.691322417026654
0.397546882259919	0.692482427179529
0.398628111572812	0.694371067003856
0.399398902627948	0.695720988514882
0.399346745108563	0.695630888044938
0.398506607676656	0.694161939209665
0.397437669804050	0.692296889202125
0.396852938310721	0.691288906953576
0.397147000669528	0.691831350027159
0.398134616294634	0.693598196520224
0.399173239807078	0.695459450909581
0.399588348150824	0.696228896006700
0.399119940617589	0.695449067978929
0.398094561075971	0.693693683863797
0.397208938232737	0.692187271619059
0.397068508383968	0.691993869650989
0.397786390597431	0.693312004923831
0.398908355376359	0.695342785716301
0.399713469880998	0.696818454649775
0.399691346955885	0.696841420895054
0.398879986202609	0.695478205121937
0.397840504786189	0.693715015954516
0.397285490496251	0.692804374641139
0.397607064909633	0.693435424197306
0.398617151767422	0.695277306987394
0.399671933048856	0.697197965615915
0.400098083702339	0.698013487415009
0.399638551952273	0.697271810927153
0.398622709834446	0.695551859553734
0.397748207896780	0.694080029116427
0.397618979579553	0.693917972676573
0.398345307193779	0.695259492969317
0.399470767018823	0.697302106551185
0.400274426661890	0.698778322384773
0.400248192980395	0.698794844855256
0.399433232180938	0.697424017682778
0.398392699606737	0.695655879786088
0.397838835711027	0.694742577457927
0.398161347525882	0.695369230892387
0.399169359141077	0.697200267048515
0.400217799134167	0.699101614311447
0.400634536432147	0.699891629853234
0.400165434322507	0.699123528188753
0.399142627786941	0.697381220884714
0.398264598159850	0.695892674274562
0.398133669122160	0.695716800384927
0.398857172529631	0.697042283151429
0.399976373390786	0.699062623785671
0.400770216325590	0.700510143523370
0.400732766342919	0.700495350910078
0.399908204444332	0.699095882640647
0.398861559270933	0.697305048071521
0.398304554920441	0.696374048756576
0.398624321342275	0.696983425104954
0.399627033715726	0.698792360425490
0.400666231184141	0.700664273040965
0.401070848389548	0.701419320484130
0.400589537266963	0.700615543015138
0.399557069944844	0.698841410227184
0.398672638756505	0.697326061071726
0.398536853296121	0.697125319816619
0.399254014208205	0.698422472234861
0.400363020172126	0.700406797459197
0.401142658767122	0.701810287758597
0.401089132119403	0.701747166746339
0.400249622281634	0.700300317340365
0.399191025162490	0.698466315510544
0.398624556427258	0.697495467571228
0.398934798533179	0.698063849554398
0.399925032726196	0.699825587611709
0.400947485836333	0.701641840156248
0.401332248787560	0.702334861542740
0.400830857016778	0.701467842080886
0.399780814507177	0.699634151108439
0.398882121399653	0.698064460411014
0.398733778484794	0.697811893359488
0.399437174095646	0.699054756904864
0.400528972410675	0.700978555398772
0.401287941429344	0.702315411200229
0.401212553160890	0.702183712263052
0.400353110997093	0.700672010180495
0.399278484591294	0.698780537544901
0.398699478619918	0.697759068236605
0.398998223005723	0.698279558025329
0.399975200398331	0.699991403569161
0.400981417273779	0.701753805417735
0.401348200573628	0.702391373333899
0.400830027817203	0.701472645109536
0.399767168422567	0.699596017679506
0.398860442083708	0.697993758181396
0.398707238286725	0.697716298655230
0.399406022934771	0.698936934915367
0.400491209031960	0.700837324003076
0.401241516486436	0.702149596516997
0.401157638777492	0.701996119965335
0.400292927025866	0.700470858517595
0.399218127147909	0.698577377599100
0.398643519028258	0.697564542083035
0.398948659314504	0.698099776569051
0.399931110112009	0.699827315298964
0.400940533506941	0.701603946981344
0.401309360360222	0.702256153989299
0.400794864020798	0.701357302199764
0.399739917850249	0.699510261328667
0.398845990157428	0.697948317012659
0.398708688763338	0.697718631966306
0.399423396196605	0.698988930569339
0.400522125787617	0.700936488561896
0.401283409737250	0.702292934063295
0.401210025669888	0.702184118224660
0.400358233307810	0.700708932474504
0.399300516127878	0.698873807065482
0.398746499062346	0.697926264022354
0.399073053458840	0.698528816293937
0.400074732575374	0.700320220451203
0.401099788167798	0.702154602677784
0.401481704680137	0.702860121361058
0.400980509397046	0.702014816409036
0.399941643738033	0.700225915204339
0.399067198906752	0.698727653315331
0.398950993611184	0.698563916278816
0.399685344486128	0.699896921138910
0.400799908222101	0.701899698639622
0.401573091764124	0.703303570935059
0.401509829466246	0.703238111658074
0.400669365502147	0.701807406691672
0.399625999414560	0.700021043394149
0.399088787575546	0.699125525018664
0.399432016995578	0.699778817760264
0.400447350312380	0.701614608031320
0.401481760266998	0.703484799162585
0.401869919850079	0.704219677544262
0.401374739230062	0.703402401095583
0.400344346086623	0.701644979140200
0.399481564050302	0.700183002014952
0.399378529826341	0.700057471127881
0.400124603886066	0.701425483068626
0.401247197919947	0.703456199940645
0.402024700016978	0.704880988264072
0.401964292476480	0.704833448268105
0.401128272792656	0.703423103145319
0.400092802547657	0.701662875832810
0.399566398257533	0.700798372963849
0.399920781426814	0.701483091337226
0.400944736752958	0.703345685215689
0.401983961667732	0.705235828074655
0.402374304682997	0.705985868370132
0.401881521437350	0.705183943834065
0.400856361634617	0.703446631552689
0.400002294887067	0.702010595568945
0.399909676219699	0.701913622401170
0.400664804953521	0.703307323463655
0.401792739783588	0.705356599781719
0.402571734916897	0.706792437580519
0.402511091818794	0.706751997885666
0.401676014885006	0.705349730638123
0.400644366401099	0.703601347299377
0.400123955603608	0.702750993570219
0.400483775456152	0.703447137599839
0.401509580711229	0.705312863025362
0.402545652434977	0.707195099758626
0.402928879343786	0.707927764400987
0.402427727641201	0.707103495165465
0.401395434196407	0.705342975623659
0.400535986162258	0.703883515497137
0.400437845237640	0.703759313711252
0.401184163682192	0.705116198457567
0.402297589948074	0.707114594793478
0.403056212003300	0.708484973328073
0.402971436168926	0.708367990792407
0.402111373097008	0.706883023615095
0.401055600633820	0.705048641459697
0.400511258632232	0.704107683381837
0.400844681220106	0.704703844138854
0.401838699263558	0.706455001399260
0.402836317342473	0.708205811039277
0.403175630111748	0.708792317598848
0.402627997573519	0.707812294013981
0.401549340857236	0.705891230983082
0.400644378476909	0.704267853815358
0.400499916006864	0.703973622052494
0.401196224265346	0.705149512882720
0.402253834403525	0.706952486099020
0.402950980560566	0.708113568057088
0.402801494875416	0.707778019624151
0.401876715371875	0.706071269709995
0.400758254630526	0.704015881020229
0.400152904063943	0.702854530900764
0.400424666763162	0.703227299223452
0.401353785409458	0.704748026007339
0.402282325920876	0.706260255390062
0.402549917936202	0.706603291270081
0.401931124589529	0.705381116984994
0.400784835056771	0.703225034501556
0.399816758508301	0.701376113806905
0.399612284438317	0.700863933164820
0.400249027048459	0.701825408104495
0.401245608129113	0.703414746282842
0.401880591096143	0.704364148597976
0.401670381659726	0.703823982321334
0.400689650112280	0.701926098164535
0.399522105082514	0.699697284260920
0.398874212794445	0.698380159242855
0.399107637799113	0.698611172965930
0.400000000000000	0.700000000000000